ppg_1,ppg_2,ppg_3
2389377.25,167911568.0,159873120.0
2394212.5,167894656.0,159833632.0
2390989.0,167888208.0,159818320.0
2396630.0,167944608.0,159861824.0
2392600.75,167979264.0,159877136.0
2393406.5,167958320.0,159840880.0
2398241.75,167926080.0,159864256.0
2393406.5,167951056.0,159803008.0
2386959.75,167966368.0,159776416.0
2395018.25,167956704.0,159860224.0
2396630.0,167965568.0,159844096.0
2389377.25,167904320.0,159838464.0
2392600.75,167888208.0,159834432.0
2390183.25,167934944.0,159812672.0
2396630.0,167939776.0,159861024.0
2386959.75,167976848.0,159875536.0
2392600.75,167911568.0,159850544.0
2387765.5,167967184.0,159818320.0
2388571.5,167992160.0,159888432.0
2392600.75,168023584.0,159865056.0
2390989.0,167992160.0,159865856.0
2395824.25,168054208.0,159927104.0
2390183.25,168038096.0,159918240.0
2390989.0,167996992.0,159916624.0
2398241.75,168047760.0,159947248.0
2399047.5,168071936.0,159932752.0
2395824.25,168112240.0,159963376.0
2398241.75,168168640.0,159940800.0
2401465.25,168134800.0,159947248.0
2397436.0,168135600.0,159894864.0
2403882.75,168146880.0,159923888.0
2403077.0,168241984.0,159989152.0
2403882.75,168185568.0,159912608.0
2397436.0,168166224.0,159925488.0
2395824.25,168092080.0,159899712.0
2393406.5,168074352.0,159862640.0
2398241.75,168038096.0,159925488.0
2391794.75,168009888.0,159826368.0
2390989.0,167973632.0,159822352.0
2391794.75,167920432.0,159889232.0
2390989.0,167912384.0,159800592.0
2391794.75,167913184.0,159818320.0
2390183.25,167889824.0,159811056.0
2386959.75,167878528.0,159827984.0
2396630.0,167913184.0,159857808.0
2384542.0,167879344.0,159803008.0
2390989.0,167901104.0,159852960.0
2390989.0,167885792.0,159852160.0
2396630.0,167909968.0,159835232.0
2394212.5,167931728.0,159798176.0
2392600.75,167925280.0,159825568.0
2394212.5,167951872.0,159840880.0
2394212.5,167870480.0,159869088.0
2394212.5,167968784.0,159840080.0
2397436.0,167928496.0,159816704.0
2396630.0,167889824.0,159829600.0
2390183.25,167892240.0,159848944.0
2396630.0,167928496.0,159783664.0
2398241.75,167968784.0,159863440.0
2392600.75,167893840.0,159791728.0
2391794.75,167919632.0,159811056.0
2392600.75,167899488.0,159815088.0
2392600.75,167906736.0,159854576.0
2395824.25,167967184.0,159833632.0
2393406.5,167956704.0,159885200.0
2390989.0,167979264.0,159794944.0
2387765.5,167951872.0,159849744.0
2400659.25,168061472.0,159919040.0
2390183.25,167971216.0,159889232.0
2398241.75,168050992.0,159879568.0
2399853.5,168042128.0,159915024.0
2390989.0,167995392.0,159844096.0
2399047.5,168052608.0,159882784.0
2394212.5,168082416.0,159911792.0
2395824.25,168148496.0,159954512.0
2392600.75,168108208.0,159906160.0
2396630.0,168161392.0,159889232.0
2399047.5,168148496.0,159874720.0
2399047.5,168150912.0,159915824.0
2405494.5,168140432.0,159987552.0
2398241.75,168064688.0,159850544.0
2399853.5,168028432.0,159871504.0
2391794.75,167996192.0,159786080.0
2391794.75,167950256.0,159815904.0
2393406.5,167884976.0,159795744.0
2396630.0,167884176.0,159799776.0
2386153.75,167873696.0,159762704.0
2387765.5,167876112.0,159827984.0
2389377.25,167868864.0,159757872.0
2387765.5,167845488.0,159790912.0
2392600.75,167813264.0,159772384.0
2389377.25,167797136.0,159780432.0
2394212.5,167772160.0,159840080.0
2391794.75,167785056.0,159752240.0
2394212.5,167773776.0,159869888.0
2391794.75,167821312.0,159862640.0
2386153.75,167811648.0,159802192.0
2389377.25,167839040.0,159816704.0
2396630.0,167824544.0,159856192.0
2397436.0,167851136.0,159786880.0
2389377.25,167830176.0,159759488.0
2396630.0,167839040.0,159819920.0
2395824.25,167825344.0,159808640.0
2393406.5,167872896.0,159763520.0
2394212.5,167864832.0,159807040.0
2394212.5,167843072.0,159749008.0
2397436.0,167889824.0,159832016.0
2397436.0,167924464.0,159812672.0
2395824.25,167873696.0,159774000.0
2392600.75,167863216.0,159770768.0
2399047.5,167927696.0,159806224.0
2393406.5,167896256.0,159804608.0
2398241.75,167943008.0,159864256.0
2394212.5,167947040.0,159794144.0
2395824.25,167929312.0,159896480.0
2395824.25,167943808.0,159928720.0
2395018.25,167908352.0,159855392.0
2399853.5,168002640.0,159891648.0
2400659.25,168021168.0,159879568.0
2396630.0,167961536.0,159790112.0
2405494.5,168065488.0,159889232.0
2409523.75,168009088.0,159931936.0
2402271.0,168071136.0,159886000.0
2401465.25,168084832.0,159907760.0
2396630.0,168057440.0,159848128.0
2397436.0,168039712.0,159833632.0
2406300.25,168064688.0,159890848.0
2399853.5,167991360.0,159822352.0
2398241.75,167940592.0,159827184.0
2399853.5,167895456.0,159804608.0
2399047.5,167880144.0,159811056.0
2395018.25,167820512.0,159738528.0
2395018.25,167801984.0,159757872.0
2395824.25,167830992.0,159794944.0
2394212.5,167775392.0,159747392.0
2390989.0,167761680.0,159748208.0
2390989.0,167788272.0,159675680.0
2390989.0,167810032.0,159766736.0
2395018.25,167760880.0,159730480.0
2389377.25,167718176.0,159728864.0
2392600.75,167745568.0,159782864.0
2395018.25,167735088.0,159759488.0
2394212.5,167779408.0,159778832.0
2386959.75,167768944.0,159798976.0
2391794.75,167801168.0,159788496.0
2395018.25,167765712.0,159787696.0
2398241.75,167768128.0,159801392.0
2395018.25,167749600.0,159786880.0
2395018.25,167792304.0,159774800.0
2393406.5,167797136.0,159757072.0
2394212.5,167799568.0,159818320.0
2395824.25,167793920.0,159861824.0
2394212.5,167843072.0,159812672.0
2397436.0,167833408.0,159808640.0
2397436.0,167840656.0,159773184.0
2390989.0,167822128.0,159817504.0
2388571.5,167855968.0,159829600.0
2402271.0,167895456.0,159829600.0
2399047.5,167875312.0,159847328.0
2399047.5,167891424.0,159836848.0
2396630.0,167888208.0,159816704.0
2396630.0,167844688.0,159758688.0
2402271.0,167889008.0,159838464.0
2400659.25,167896256.0,159860224.0
2396630.0,167903520.0,159879568.0
2400659.25,167929312.0,159876336.0
2405494.5,167980080.0,159915024.0
2403077.0,168026816.0,159867472.0
2401465.25,167989744.0,159967392.0
2402271.0,168024400.0,159905344.0
2404688.75,168070336.0,159969008.0
2404688.75,168063888.0,159899712.0
2399047.5,168062272.0,159865056.0
2407912.0,168140432.0,159927104.0
2404688.75,168015536.0,159940000.0
2403077.0,168025200.0,159943216.0
2392600.75,167922048.0,159815904.0
2399047.5,167915600.0,159881984.0
2396630.0,167810032.0,159817504.0
2391794.75,167861616.0,159823152.0
2396630.0,167807616.0,159841680.0
2394212.5,167774576.0,159815088.0
2395824.25,167792304.0,159819120.0
2393406.5,167799568.0,159846528.0
2396630.0,167796336.0,159803808.0
2404688.75,167817296.0,159873120.0
2397436.0,167829376.0,159814288.0
2404688.75,167759264.0,159823152.0
2398241.75,167764096.0,159764320.0
2401465.25,167750400.0,159825568.0
2403077.0,167853552.0,159869088.0
2402271.0,167796336.0,159807040.0
2397436.0,167780224.0,159823152.0
2399853.5,167814864.0,159761904.0
2399853.5,167806000.0,159850544.0
2400659.25,167801984.0,159810256.0
2397436.0,167795536.0,159826368.0
2403077.0,167801984.0,159869888.0
2400659.25,167797136.0,159821536.0
2397436.0,167791504.0,159841680.0
2401465.25,167811648.0,159785280.0
2394212.5,167812448.0,159823952.0
2401465.25,167803584.0,159803808.0
2399853.5,167789088.0,159905344.0
2400659.25,167837440.0,159825568.0
2405494.5,167848720.0,159877136.0
2405494.5,167893840.0,159855392.0
2400659.25,167885792.0,159872304.0
2410329.75,167862416.0,159917440.0
2410329.75,167943808.0,159945648.0
2407106.25,167907552.0,159892448.0
2414359.0,167928496.0,159976256.0
2414359.0,167971216.0,159931936.0
2404688.75,167926880.0,159917440.0
2407106.25,168007472.0,159906960.0
2403077.0,168002640.0,159837648.0
2410329.75,167979264.0,159949664.0
2407912.0,167967984.0,159972240.0
2407106.25,168052608.0,159940800.0
2409523.75,168012304.0,159873120.0
2409523.75,167975232.0,159868272.0
2407106.25,167988128.0,159881168.0
2403882.75,167955088.0,159881168.0
2407106.25,167896256.0,159894064.0
2403077.0,167860000.0,159865856.0
2398241.75,167758464.0,159800592.0
2397436.0,167793120.0,159805424.0
2395824.25,167779408.0,159815088.0
2399853.5,167745568.0,159807040.0
2401465.25,167735088.0,159796560.0
2398241.75,167708496.0,159761904.0
2402271.0,167682704.0,159776416.0
2399047.5,167675456.0,159786080.0
2401465.25,167686736.0,159756256.0
2392600.75,167665792.0,159791728.0
2393406.5,167728640.0,159723216.0
2396630.0,167729456.0,159799776.0
2395824.25,167753632.0,159811872.0
2398241.75,167722192.0,159880368.0
2395018.25,167787472.0,159803008.0
2397436.0,167772160.0,159778832.0
2391794.75,167752016.0,159818320.0
2395824.25,167739120.0,159792528.0
2398241.75,167729456.0,159805424.0
2393406.5,167720592.0,159742560.0
2395018.25,167698832.0,159774800.0
2397436.0,167718976.0,159810256.0
2398241.75,167756848.0,159799776.0
2398241.75,167692384.0,159740960.0
2393406.5,167734288.0,159778016.0
2401465.25,167757648.0,159813472.0
2401465.25,167787472.0,159835232.0
2398241.75,167770544.0,159847328.0
2405494.5,167812448.0,159820736.0
2399047.5,167835824.0,159833632.0
2399853.5,167794720.0,159840880.0
2399853.5,167828576.0,159832016.0
2398241.75,167899488.0,159885200.0
2399853.5,167890624.0,159880368.0
2403077.0,167825344.0,159910992.0
2394212.5,167851136.0,159857808.0
2407106.25,167880144.0,159946448.0
2405494.5,167927696.0,159987552.0
2404688.75,167943008.0,159973840.0
2399853.5,167960736.0,159947248.0
2407106.25,167947840.0,159953696.0
2391794.75,167937360.0,159839264.0
2399047.5,167881760.0,159899712.0
2400659.25,167821312.0,159901312.0
2398241.75,167700432.0,159791728.0
2396630.0,167731872.0,159807040.0
2400659.25,167766528.0,159865856.0
2394212.5,167657728.0,159802192.0
2387765.5,167655312.0,159765936.0
2393406.5,167646448.0,159749008.0
2393406.5,167630336.0,159762704.0
2390183.25,167577952.0,159815088.0
2396630.0,167631936.0,159759488.0
2390183.25,167580368.0,159756256.0
2394212.5,167597296.0,159806224.0
2391794.75,167614208.0,159717584.0
2395018.25,167606960.0,159763520.0
2395018.25,167596480.0,159843296.0
2394212.5,167630336.0,159815904.0
2391794.75,167644032.0,159763520.0
2390183.25,167579568.0,159815904.0
2399853.5,167660144.0,159869888.0
2390183.25,167617440.0,159886000.0
2393406.5,167604544.0,159794144.0
2391794.75,167635168.0,159837648.0
2397436.0,167568272.0,159759488.0
2387765.5,167635968.0,159810256.0
2395824.25,167660144.0,159813472.0
2393406.5,167623072.0,159820736.0
2394212.5,167619040.0,159840880.0
2392600.75,167587616.0,159769152.0
2391794.75,167651280.0,159817504.0
2392600.75,167637584.0,159821536.0
2399853.5,167689968.0,159861824.0
2403077.0,167660144.0,159862640.0
2398241.75,167619040.0,159847328.0
2397436.0,167684320.0,159863440.0
2393406.5,167689968.0,159849744.0
2397436.0,167722192.0,159856192.0
2395824.25,167685136.0,159872304.0
2399047.5,167744768.0,159874720.0
2394212.5,167784256.0,159844912.0
2397436.0,167784256.0,159837648.0
2393406.5,167806000.0,159893264.0
2394212.5,167851936.0,159894064.0
2397436.0,167860800.0,159925488.0
2402271.0,167815680.0,159949664.0
2389377.25,167840656.0,159882784.0
2395018.25,167747184.0,159865056.0
2390989.0,167705280.0,159823152.0
2391794.75,167675456.0,159809456.0
2392600.75,167627104.0,159778016.0
2392600.75,167643216.0,159827984.0
2391794.75,167573120.0,159823152.0
2386959.75,167498976.0,159744976.0
2391794.75,167544912.0,159774800.0
2386959.75,167515904.0,159835232.0
2386959.75,167540880.0,159830400.0
2391794.75,167509456.0,159740144.0
2390989.0,167518320.0,159821536.0
2388571.5,167470768.0,159797360.0
2387765.5,167543296.0,159821536.0
2386153.75,167439344.0,159811872.0
2388571.5,167508640.0,159798976.0
2392600.75,167524768.0,159819920.0
2385348.0,167534432.0,159811872.0
2380512.75,167527984.0,159780432.0
2388571.5,167561024.0,159825568.0
2382930.5,167559408.0,159811872.0
2386153.75,167571504.0,159802192.0
2390183.25,167519120.0,159826368.0
2386959.75,167556992.0,159797360.0
2387765.5,167526368.0,159847328.0
2394212.5,167528784.0,159815088.0
2391794.75,167534432.0,159787696.0
2387765.5,167528784.0,159771568.0
2391794.75,167565856.0,159835232.0
2390183.25,167592448.0,159800592.0
2391794.75,167597296.0,159791728.0
2388571.5,167547328.0,159886816.0
2394212.5,167589232.0,159877136.0
2387765.5,167573920.0,159774000.0
2395824.25,167682704.0,159903744.0
2389377.25,167631936.0,159874720.0
2390183.25,167692384.0,159829600.0
2392600.75,167723808.0,159927920.0
2394212.5,167677072.0,159914208.0
2398241.75,167640000.0,159910992.0
2395824.25,167701248.0,159894864.0
2393406.5,167736704.0,159903744.0
2395018.25,167732672.0,159882784.0
2395018.25,167829376.0,159927104.0
2401465.25,167755232.0,159938384.0
2399853.5,167783440.0,159906960.0
2400659.25,167738320.0,159898096.0
2399853.5,167732672.0,159873920.0
2403882.75,167732672.0,159892448.0
2396630.0,167594864.0,159877952.0
2390183.25,167592448.0,159740960.0
2395824.25,167590848.0,159807840.0
2394212.5,167574720.0,159720000.0
2394212.5,167552160.0,159769152.0
2394212.5,167553776.0,159786880.0
2394212.5,167480432.0,159755456.0
2395018.25,167485280.0,159823152.0
2394212.5,167470768.0,159820736.0
2388571.5,167449008.0,159778832.0
2394212.5,167493328.0,159818320.0
2392600.75,167531216.0,159839264.0
2391794.75,167516704.0,159786880.0
2390989.0,167537648.0,159846528.0
2389377.25,167527184.0,159766736.0
2387765.5,167541680.0,159827184.0
2396630.0,167544096.0,159844912.0
2402271.0,167532016.0,159860224.0
2388571.5,167535232.0,159794144.0
2394212.5,167602128.0,159875536.0
2396630.0,167571504.0,159809456.0
2398241.75,167528784.0,159863440.0
2396630.0,167560224.0,159858608.0
2399853.5,167619856.0,159922272.0
2394212.5,167541680.0,159873120.0
2398241.75,167566672.0,159861024.0
2399047.5,167581984.0,159847328.0
2398241.75,167623072.0,159903744.0
2397436.0,167598096.0,159850544.0
2403882.75,167597296.0,159960144.0
2396630.0,167565856.0,159848128.0
2402271.0,167634352.0,159942416.0
2405494.5,167696416.0,159975456.0
2397436.0,167660960.0,159907760.0
2403077.0,167714144.0,159916624.0
2402271.0,167725424.0,159980288.0
2398241.75,167695600.0,159991568.0
2404688.75,167718976.0,159944832.0
2397436.0,167736704.0,159931136.0
2405494.5,167762496.0,159945648.0
2407106.25,167812448.0,159995600.0
2402271.0,167812448.0,159943216.0
2403882.75,167727840.0,159907760.0
2403882.75,167703664.0,159906960.0
2403077.0,167717360.0,159915024.0
2399853.5,167723808.0,159869088.0
2401465.25,167640000.0,159910176.0
2400659.25,167635968.0,159907760.0
2398241.75,167594864.0,159867472.0
2395824.25,167581984.0,159916624.0
2394212.5,167564256.0,159881984.0
2397436.0,167542496.0,159840080.0
2394212.5,167529600.0,159858608.0
2399853.5,167581984.0,159906960.0
2400659.25,167474800.0,159940000.0
2390989.0,167515088.0,159865056.0
2397436.0,167559408.0,159882784.0
2398241.75,167495744.0,159929520.0
2395018.25,167514288.0,159868272.0
2396630.0,167575536.0,159894864.0
2392600.75,167546528.0,159860224.0
2390183.25,167553776.0,159890032.0
2395018.25,167586816.0,159920656.0
2391794.75,167543296.0,159893264.0
2395018.25,167537648.0,159875536.0
2401465.25,167603744.0,159917440.0
2398241.75,167552160.0,159892448.0
2398241.75,167567472.0,159819920.0
2397436.0,167610992.0,159848944.0
2395824.25,167602128.0,159915824.0
2397436.0,167559408.0,159892448.0
2400659.25,167604544.0,159872304.0
2394212.5,167618240.0,159838464.0
2398241.75,167599712.0,159917440.0
2397436.0,167625488.0,159926304.0
2394212.5,167621472.0,159846528.0
2399047.5,167644832.0,159929520.0
2401465.25,167669824.0,159923072.0
2398241.75,167659344.0,159889232.0
2401465.25,167719776.0,159942416.0
2400659.25,167692384.0,159962560.0
2393406.5,167695600.0,159940000.0
2397436.0,167706880.0,159953696.0
2403077.0,167735088.0,159989152.0
2403077.0,167785056.0,160006880.0
2404688.75,167795536.0,160039920.0
2403882.75,167779408.0,160064912.0
2407106.25,167835824.0,160023808.0
2409523.75,167777808.0,159975456.0
2403882.75,167765712.0,159925488.0
2398241.75,167710912.0,159902928.0
2399853.5,167678688.0,159932752.0
2410329.75,167594064.0,159921472.0
2393406.5,167606160.0,159873920.0
2396630.0,167591648.0,159866672.0
2399853.5,167607760.0,159918240.0
2394212.5,167543296.0,159849744.0
2395018.25,167545712.0,159872304.0
2391794.75,167523152.0,159878752.0
2396630.0,167569088.0,159859408.0
2391794.75,167521536.0,159842496.0
2397436.0,167512672.0,159933552.0
2388571.5,167488496.0,159847328.0
2400659.25,167513472.0,159895680.0
2394212.5,167514288.0,159897296.0
2397436.0,167562640.0,159936784.0
2398241.75,167577136.0,159927920.0
2395824.25,167596480.0,159902128.0
2401465.25,167545712.0,159943216.0
2399047.5,167572304.0,159960144.0
2407912.0,167566672.0,159973040.0
2402271.0,167495744.0,159853776.0
2398241.75,167552960.0,159908576.0
2396630.0,167548128.0,159865856.0
2399047.5,167537648.0,159910176.0
2397436.0,167562640.0,159844096.0
2400659.25,167544096.0,159865056.0
2400659.25,167581984.0,159934352.0
2396630.0,167566672.0,159927104.0
2403077.0,167652896.0,159964176.0
2395824.25,167599712.0,159952896.0
2403077.0,167592448.0,159914208.0
2400659.25,167643216.0,159849744.0
2403077.0,167594864.0,159956112.0
2403882.75,167667392.0,159940000.0
2396630.0,167630336.0,159928720.0
2399047.5,167672240.0,159959344.0
2403077.0,167656928.0,159940800.0
2404688.75,167728640.0,159919856.0
2406300.25,167767328.0,159928720.0
2406300.25,167760880.0,160002048.0
2408718.0,167800368.0,160035088.0
2397436.0,167748784.0,160014944.0
2411135.5,167848720.0,160033472.0
2411135.5,167835024.0,159981104.0
2406300.25,167802784.0,159979488.0
2402271.0,167745568.0,159933552.0
2406300.25,167748784.0,159952896.0
2403882.75,167627920.0,159925488.0
2401465.25,167607760.0,159935168.0
2405494.5,167598096.0,159905344.0
2400659.25,167594864.0,159906960.0
2399047.5,167576336.0,159861824.0
2397436.0,167522352.0,159844096.0
2399047.5,167523152.0,159832816.0
2397436.0,167514288.0,159901312.0
2390183.25,167508640.0,159874720.0
2404688.75,167504608.0,159883584.0
2398241.75,167521536.0,159867472.0
2398241.75,167504608.0,159827984.0
2401465.25,167526368.0,159869888.0
2400659.25,167523952.0,159881168.0
2399047.5,167520736.0,159924688.0
2399047.5,167551360.0,159852160.0
2396630.0,167557808.0,159916624.0
2402271.0,167554576.0,159885200.0
2401465.25,167514288.0,159886816.0
2395824.25,167535232.0,159882784.0
2396630.0,167521536.0,159904544.0
2402271.0,167522352.0,159898096.0
2398241.75,167519120.0,159861024.0
2401465.25,167549744.0,159867472.0
2407106.25,167532016.0,159945648.0
2404688.75,167535232.0,159898096.0
2403077.0,167530400.0,159873920.0
2403077.0,167577952.0,159885200.0
2399047.5,167575536.0,159893264.0
2395018.25,167582784.0,159879568.0
2401465.25,167620656.0,159872304.0
2403077.0,167609376.0,159908576.0
2401465.25,167654512.0,159911792.0
2399047.5,167664176.0,159906160.0
2400659.25,167699632.0,159975456.0
2402271.0,167698016.0,159964176.0
2404688.75,167742352.0,159947248.0
2403077.0,167651280.0,159926304.0
2406300.25,167787472.0,159977872.0
2405494.5,167732672.0,159948864.0
2406300.25,167740736.0,160027840.0
2407106.25,167767328.0,160019776.0
2415970.75,167798752.0,160042352.0
2406300.25,167860800.0,160022192.0
2410329.75,167858384.0,160079408.0
2407106.25,167848720.0,160013328.0
2405494.5,167858384.0,159985936.0
2411135.5,167822928.0,159970624.0
2399853.5,167747184.0,159940800.0
2404688.75,167718976.0,159973840.0
2403077.0,167692384.0,159887616.0
2396630.0,167631136.0,159924688.0
2399853.5,167640000.0,159900512.0
2399853.5,167578752.0,159910176.0
2403882.75,167593264.0,159907760.0
2397436.0,167615024.0,159904544.0
2395018.25,167556992.0,159897296.0
2399853.5,167576336.0,159888432.0
2395018.25,167564256.0,159866672.0
2403882.75,167540880.0,159961760.0
2399853.5,167536048.0,159921472.0
2401465.25,167573120.0,159935968.0
2403882.75,167545712.0,159876336.0
2403077.0,167588432.0,159962560.0
2396630.0,167603744.0,159958528.0
2409523.75,167653696.0,159937584.0
2400659.25,167631136.0,159906960.0
2401465.25,167623072.0,159956112.0
2409523.75,167606160.0,159957728.0
2398241.75,167596480.0,159848128.0
2403882.75,167612608.0,159913408.0
2404688.75,167612608.0,159953696.0
2400659.25,167642416.0,159881168.0
2401465.25,167638384.0,159912608.0
2409523.75,167642416.0,159963376.0
2401465.25,167638384.0,159905344.0
2403882.75,167608576.0,159919040.0
2403077.0,167658528.0,159914208.0
2412747.25,167688352.0,159975456.0
2408718.0,167678688.0,159967392.0
2403077.0,167664976.0,159913408.0
2406300.25,167723008.0,159960960.0
2409523.75,167739920.0,159994000.0
2414359.0,167753632.0,159982704.0
2410329.75,167823744.0,159999632.0
2412747.25,167806000.0,159989968.0
2411941.5,167786672.0,159978688.0
2411135.5,167776192.0,160040736.0
2415164.75,167826960.0,160046368.0
2414359.0,167862416.0,160020592.0
2419194.25,167884176.0,160087472.0
2416776.5,167812448.0,160068128.0
2415164.75,167934144.0,160043152.0
2415970.75,167919632.0,160069744.0
2413553.0,167945424.0,160106000.0
2415164.75,167944608.0,160095536.0
2417582.5,167879344.0,160035088.0
2417582.5,167873696.0,160024608.0
2411135.5,167846304.0,160014144.0
2409523.75,167780224.0,159985936.0
2409523.75,167698016.0,159935168.0
2403077.0,167713328.0,159948064.0
2404688.75,167685136.0,159953696.0
2411941.5,167710112.0,159952080.0
2405494.5,167669824.0,159946448.0
2405494.5,167633552.0,159926304.0
2403077.0,167668208.0,159919040.0
2405494.5,167663376.0,159910176.0
2412747.25,167641616.0,159938384.0
2401465.25,167619040.0,159929520.0
2407106.25,167619856.0,159871504.0
2407106.25,167646448.0,159961760.0
2407912.0,167640000.0,159950480.0
2407106.25,167649664.0,159930336.0
2406300.25,167626304.0,159888432.0
2406300.25,167621472.0,159928720.0
2409523.75,167631136.0,159949664.0
2405494.5,167631936.0,159908576.0
2409523.75,167607760.0,159909376.0
2402271.0,167635968.0,159865856.0
2409523.75,167613408.0,159921472.0
2407912.0,167633552.0,159898896.0
2412747.25,167634352.0,159896480.0
2409523.75,167698832.0,159932752.0
2407912.0,167667392.0,159975456.0
2411135.5,167681904.0,159969008.0
2415164.75,167705280.0,159986736.0
2413553.0,167680288.0,159926304.0
2411135.5,167679488.0,159919040.0
2415970.75,167702048.0,159986736.0
2411941.5,167700432.0,159894064.0
2415970.75,167739920.0,159917440.0
2413553.0,167735904.0,159942416.0
2414359.0,167758464.0,159950480.0
2410329.75,167789888.0,159939200.0
2410329.75,167760080.0,159926304.0
2411941.5,167752816.0,159959344.0
2411941.5,167781824.0,159979488.0
2415164.75,167822928.0,159973040.0
2415164.75,167838240.0,159950480.0
2410329.75,167819712.0,159960144.0
2417582.5,167928496.0,160017360.0
2409523.75,167883376.0,159995600.0
2415164.75,167934144.0,159989968.0
2413553.0,167883376.0,159970624.0
2420805.75,167898688.0,159971424.0
2416776.5,167887392.0,159907760.0
2415164.75,167748784.0,159931136.0
2412747.25,167741536.0,159913408.0
2408718.0,167595680.0,159865056.0
2410329.75,167645648.0,159869888.0
2407912.0,167647248.0,159923888.0
2412747.25,167610176.0,159833632.0
2413553.0,167609376.0,159915824.0
2407912.0,167586000.0,159854576.0
2407912.0,167521536.0,159864256.0
2411135.5,167592448.0,159896480.0
2408718.0,167559408.0,159898896.0
2403077.0,167514288.0,159886000.0
2407106.25,167596480.0,159843296.0
2408718.0,167540080.0,159861024.0
2409523.75,167508640.0,159875536.0
2403882.75,167524768.0,159898096.0
2407912.0,167589232.0,159873920.0
2407106.25,167584400.0,159824768.0
2413553.0,167598096.0,159885200.0
2408718.0,167556992.0,159882784.0
2406300.25,167577952.0,159842496.0
2410329.75,167579568.0,159848128.0
2411941.5,167585200.0,159816704.0
2411135.5,167572304.0,159875536.0
2415164.75,167522352.0,159859408.0
2416776.5,167527984.0,159844096.0
2409523.75,167581984.0,159856992.0
2411135.5,167590848.0,159824768.0
2423223.5,167570688.0,159892448.0
2411135.5,167548944.0,159846528.0
2409523.75,167586816.0,159856192.0
2414359.0,167545712.0,159880368.0
2408718.0,167554576.0,159900512.0
2405494.5,167596480.0,159796560.0
2414359.0,167654512.0,159847328.0
2415970.75,167586816.0,159848944.0
2406300.25,167616624.0,159846528.0
2413553.0,167618240.0,159861024.0
2411135.5,167693184.0,159904544.0
2413553.0,167703664.0,159931136.0
2416776.5,167703664.0,159891648.0
2414359.0,167726224.0,159979488.0
2417582.5,167681104.0,159869088.0
2415970.75,167707696.0,159931936.0
2420000.0,167736704.0,159960960.0
2420805.75,167750400.0,159908576.0
2419194.25,167800368.0,159978688.0
2425641.0,167803584.0,159860224.0
2414359.0,167752816.0,159831216.0
2419194.25,167711728.0,159894064.0
2415970.75,167654512.0,159843296.0
2418388.25,167588432.0,159867472.0
2412747.25,167536048.0,159841680.0
2415164.75,167520736.0,159750624.0
2416776.5,167539264.0,159814288.0
2411941.5,167465936.0,159797360.0
2404688.75,167444176.0,159745792.0
2406300.25,167408720.0,159761904.0
2412747.25,167365200.0,159736928.0
2410329.75,167356336.0,159703888.0
2415970.75,167398240.0,159747392.0
2407912.0,167375680.0,159718384.0
2409523.75,167374864.0,159774000.0
2405494.5,167349088.0,159701472.0
2411135.5,167348272.0,159722416.0
2410329.75,167348272.0,159693408.0
2405494.5,167358752.0,159688576.0
2407912.0,167317648.0,159692608.0
2412747.25,167333776.0,159687760.0
2413553.0,167345056.0,159702272.0
2411135.5,167323296.0,159661168.0
2412747.25,167328944.0,159737728.0
2413553.0,167283808.0,159728064.0
2411941.5,167266880.0,159683744.0
2415970.75,167257216.0,159645856.0
2409523.75,167293472.0,159666000.0
2413553.0,167322496.0,159670848.0
2410329.75,167274944.0,159649088.0
2406300.25,167333776.0,159666000.0
2407106.25,167326528.0,159720800.0
2402271.0,167299920.0,159697440.0
2405494.5,167340224.0,159659568.0
2404688.75,167332160.0,159720000.0
2403882.75,167368432.0,159686960.0
2396630.0,167363584.0,159737728.0
2407106.25,167367616.0,159764320.0
2403882.75,167431280.0,159743376.0
2405494.5,167446592.0,159765936.0
2404688.75,167390992.0,159753040.0
2409523.75,167411936.0,159803008.0
2411135.5,167471568.0,159740144.0
2416776.5,167466736.0,159747392.0
2404688.75,167503008.0,159757872.0
2409523.75,167516704.0,159781248.0
2415164.75,167542496.0,159748208.0
2416776.5,167565056.0,159827984.0
2413553.0,167598096.0,159793328.0
2415164.75,167563440.0,159757072.0
2418388.25,167519120.0,159778832.0
2412747.25,167440144.0,159761104.0
2406300.25,167395024.0,159714352.0
2407106.25,167319264.0,159720800.0
2404688.75,167260432.0,159713552.0
2403077.0,167283808.0,159641824.0
2403882.75,167258832.0,159618464.0
2407106.25,167245136.0,159676480.0
2405494.5,167201616.0,159627328.0
2408718.0,167158896.0,159650688.0
2405494.5,167176624.0,159604768.0
2407106.25,167123440.0,159652304.0
2397436.0,167169376.0,159658752.0
2394212.5,167191936.0,159715168.0
2403882.75,167186304.0,159757872.0
2410329.75,167227392.0,159794944.0
2413553.0,167272528.0,159854576.0
2409523.75,167234656.0,159767552.0
2406300.25,167183888.0,159735312.0
2407106.25,167219344.0,159695024.0
2407106.25,167217728.0,159729664.0
2404688.75,167192752.0,159624096.0
2408718.0,167208864.0,159687760.0
2403882.75,167183888.0,159661984.0
2408718.0,167182272.0,159682128.0
2403882.75,167173408.0,159652304.0
2407912.0,167141168.0,159708720.0
2407912.0,167212080.0,159694208.0
2407106.25,167162128.0,159707104.0
2406300.25,167175024.0,159723216.0
2399047.5,167251568.0,159709520.0
2403882.75,167223376.0,159666816.0
2396630.0,167212896.0,159682128.0
2403077.0,167281392.0,159696624.0
2403077.0,167203216.0,159729664.0
2406300.25,167253184.0,159743376.0
2410329.75,167254800.0,159722416.0
2406300.25,167345856.0,159731280.0
2404688.75,167336192.0,159738528.0
2416776.5,167310400.0,159778016.0
2412747.25,167353920.0,159785280.0
2412747.25,167322496.0,159795744.0
2415970.75,167370848.0,159778832.0
2407106.25,167383744.0,159808640.0
2413553.0,167370032.0,159784464.0
2415164.75,167423216.0,159821536.0
2415970.75,167354720.0,159797360.0
2412747.25,167303152.0,159756256.0
2414359.0,167286224.0,159765936.0
2407106.25,167200000.0,159719200.0
2403882.75,167214512.0,159701472.0
2397436.0,167100080.0,159666816.0
2397436.0,167070256.0,159608784.0
2395824.25,167095232.0,159627328.0
2404688.75,167077504.0,159645856.0
2400659.25,167047696.0,159638608.0
2399853.5,167062192.0,159657136.0
2406300.25,167038832.0,159642640.0
2401465.25,167062192.0,159695824.0
2397436.0,167024320.0,159660368.0
2400659.25,167044464.0,159744976.0
2403882.75,166959856.0,159674064.0
2405494.5,167066224.0,159730480.0
2393406.5,167014656.0,159644256.0
2396630.0,167077504.0,159645856.0
2402271.0,167046080.0,159674864.0
2397436.0,167062192.0,159716784.0
2407106.25,167046880.0,159716784.0
2398241.75,167058176.0,159714352.0
2401465.25,167104096.0,159723216.0
2401465.25,167110544.0,159777216.0
2401465.25,167042864.0,159732896.0
2397436.0,167092016.0,159733696.0
2398241.75,167105712.0,159736112.0
2398241.75,167094432.0,159781248.0
2403882.75,167117808.0,159803008.0
2399047.5,167140368.0,159744976.0
2401465.25,167088784.0,159782864.0
2402271.0,167129888.0,159736928.0
2407106.25,167128272.0,159724032.0
2403882.75,167139568.0,159656336.0
2400659.25,167053328.0,159582192.0
2403882.75,167111360.0,159595904.0
2393406.5,167047696.0,159490336.0
2398241.75,167061392.0,159413776.0
2398241.75,167065424.0,159438752.0
2394212.5,167054144.0,159475824.0
2396630.0,167043664.0,159475024.0
2399853.5,167106528.0,159577360.0
2395018.25,167084768.0,159506448.0
2395824.25,167187104.0,159529824.0
2395824.25,167133120.0,159570112.0
2397436.0,167107328.0,159566080.0
2395824.25,167134720.0,159599120.0
2392600.75,167014656.0,159487104.0
2383736.25,166959856.0,159400080.0
2382930.5,166867184.0,159313840.0
2382124.5,166863952.0,159418608.0
2383736.25,166830112.0,159354144.0
2384542.0,166821248.0,159344464.0
2385348.0,166780960.0,159361392.0
2390183.25,166773696.0,159403296.0
2387765.5,166843008.0,159508064.0
2399047.5,166805136.0,159527392.0
2389377.25,166790624.0,159539488.0
2394212.5,166827696.0,159561248.0
2394212.5,166778528.0,159648272.0
2396630.0,166852672.0,159670032.0
2407106.25,166848640.0,159722416.0
2396630.0,166883296.0,159741760.0
2401465.25,166912304.0,159683744.0
2400659.25,166872816.0,159653920.0
2402271.0,166890544.0,159765936.0
2405494.5,166914720.0,159775600.0
2408718.0,166953408.0,159732080.0
2409523.75,166974352.0,159774800.0
2408718.0,166954208.0,159761104.0
2408718.0,166958240.0,159766736.0
2415970.75,167020288.0,159803808.0
2411941.5,166923584.0,159747392.0
2411135.5,166992896.0,159794944.0
2417582.5,166997728.0,159873920.0
2413553.0,167000144.0,159839264.0
2415970.75,167017872.0,159894064.0
2412747.25,166993696.0,159826368.0
2411941.5,167062192.0,159848128.0
2415164.75,167038016.0,159892448.0
2411135.5,167108944.0,159904544.0
2411135.5,167079920.0,159897296.0
2411941.5,167091216.0,159837648.0
2413553.0,167112160.0,159925488.0
2414359.0,167154864.0,159931136.0
2412747.25,167148432.0,159927104.0
2414359.0,167191136.0,159925488.0
2414359.0,167179040.0,159933552.0
2417582.5,167208864.0,159945648.0
2416776.5,167187920.0,159954512.0
2417582.5,167146000.0,159880368.0
2416776.5,167166160.0,159891648.0
2407106.25,167128272.0,159856992.0
2414359.0,167042048.0,159785280.0
2407106.25,166972752.0,159780432.0
2411941.5,166990480.0,159798176.0
2409523.75,166929232.0,159803008.0
2406300.25,166914720.0,159737728.0
2411941.5,166885712.0,159748208.0
2411135.5,166883296.0,159770768.0
2410329.75,166867184.0,159713552.0
2411941.5,166818016.0,159744976.0
2413553.0,166835744.0,159720000.0
2405494.5,166757584.0,159678896.0
2405494.5,166804320.0,159693408.0
2411135.5,166790624.0,159707920.0
2409523.75,166855088.0,159682128.0
2409523.75,166823664.0,159678896.0
2411941.5,166822048.0,159699856.0
2407106.25,166877648.0,159692608.0
2407106.25,166835744.0,159673264.0
2407912.0,166833328.0,159651504.0
2408718.0,166874432.0,159689376.0
2401465.25,166797872.0,159650688.0
2408718.0,166821248.0,159731280.0
2411941.5,166867984.0,159703888.0
2413553.0,166836560.0,159711136.0
2403077.0,166835744.0,159686960.0
2407106.25,166849456.0,159690992.0
2410329.75,166841392.0,159729664.0
2407912.0,166809152.0,159703072.0
2411135.5,166859120.0,159728064.0
2408718.0,166905856.0,159741760.0
2412747.25,166860736.0,159765136.0
2418388.25,166834144.0,159804608.0
2409523.75,166898608.0,159735312.0
2413553.0,166927616.0,159819120.0
2417582.5,166930848.0,159803008.0
2411941.5,166977584.0,159769152.0
2414359.0,166985648.0,159848128.0
2413553.0,167029152.0,159815904.0
2418388.25,167011424.0,159863440.0
2413553.0,167026736.0,159786880.0
2414359.0,167025936.0,159865056.0
2415164.75,166962272.0,159749008.0
2414359.0,166942128.0,159811872.0
2411135.5,166842192.0,159821536.0
2410329.75,166857504.0,159750624.0
2407912.0,166805136.0,159711136.0
2411135.5,166797072.0,159714352.0
2407912.0,166788208.0,159723216.0
2414359.0,166769664.0,159753040.0
2408718.0,166724544.0,159750624.0
2408718.0,166718096.0,159698240.0
2413553.0,166739856.0,159742560.0
2411135.5,166736624.0,159724032.0
2413553.0,166690688.0,159753040.0
2410329.75,166716480.0,159765136.0
2405494.5,166704400.0,159774000.0
2410329.75,166704400.0,159770768.0
2419194.25,166758384.0,159826368.0
2408718.0,166789008.0,159751424.0
2411135.5,166755168.0,159761904.0
2411135.5,166751936.0,159768352.0
2409523.75,166759200.0,159782048.0
2407106.25,166769664.0,159766736.0
2410329.75,166777728.0,159728064.0
2414359.0,166764832.0,159734512.0
2411941.5,166761616.0,159699040.0
2411941.5,166760800.0,159706304.0
2407106.25,166725344.0,159690992.0
2409523.75,166796256.0,159707920.0
2415164.75,166764032.0,159684544.0
2418388.25,166760000.0,159737728.0
2415970.75,166748720.0,159749008.0
2416776.5,166810768.0,159709520.0
2418388.25,166809152.0,159733696.0
2418388.25,166809152.0,159769968.0
2416776.5,166843008.0,159727248.0
2416776.5,166859920.0,159743376.0
2420000.0,166883296.0,159809456.0
2416776.5,166854288.0,159759488.0
2417582.5,166928432.0,159822352.0
2418388.25,166946960.0,159823952.0
2417582.5,166927616.0,159821536.0
2415970.75,166992896.0,159824768.0
2422417.5,166946960.0,159811872.0
2415970.75,166872016.0,159754656.0
2415164.75,166871216.0,159801392.0
2416776.5,166817216.0,159785280.0
2408718.0,166770480.0,159789312.0
2408718.0,166708432.0,159695824.0
2415164.75,166722128.0,159761104.0
2414359.0,166721312.0,159785280.0
2409523.75,166677808.0,159722416.0
2408718.0,166680224.0,159757072.0
2408718.0,166707616.0,159770768.0
2409523.75,166694720.0,159736928.0
2408718.0,166706816.0,159786880.0
2415970.75,166706816.0,159734512.0
2410329.75,166687472.0,159733696.0
2408718.0,166637504.0,159715968.0
2420805.75,166715680.0,159807040.0
2414359.0,166717296.0,159761104.0
2409523.75,166710032.0,159796560.0
2416776.5,166730992.0,159766736.0
2410329.75,166710848.0,159778016.0
2420805.75,166761616.0,159829600.0
2417582.5,166692304.0,159751424.0
2411941.5,166718096.0,159768352.0
2416776.5,166698752.0,159799776.0
2420000.0,166676992.0,159818320.0
2415164.75,166719712.0,159755456.0
2415970.75,166745488.0,159820736.0
2418388.25,166728576.0,159831216.0
2411941.5,166744688.0,159713552.0
2409523.75,166795456.0,159815904.0
2415164.75,166757584.0,159778016.0
2420805.75,166802704.0,159856192.0
2420805.75,166746304.0,159813472.0
2415164.75,166814800.0,159837648.0
2414359.0,166817216.0,159815904.0
2420805.75,166818832.0,159867472.0
2422417.5,166888128.0,159821536.0
2420805.75,166900224.0,159898096.0
2422417.5,166906672.0,159879568.0
2418388.25,166905856.0,159848944.0
2428864.5,166937296.0,159868272.0
2422417.5,166976784.0,159803008.0
2424835.25,166926000.0,159872304.0
2420000.0,166897808.0,159794944.0
2415164.75,166892960.0,159819120.0
2421611.75,166850256.0,159756256.0
2419194.25,166792240.0,159848128.0
2417582.5,166756784.0,159753840.0
2419194.25,166734208.0,159798976.0
2417582.5,166693920.0,159769968.0
2416776.5,166755168.0,159800592.0
2412747.25,166662496.0,159794144.0
2414359.0,166711648.0,159755456.0
2409523.75,166614144.0,159736928.0
2409523.75,166705200.0,159785280.0
2412747.25,166718896.0,159811056.0
2415970.75,166722128.0,159721616.0
2410329.75,166660880.0,159802192.0
2411941.5,166686672.0,159761104.0
2418388.25,166680224.0,159777216.0
2415164.75,166700368.0,159795744.0
2416776.5,166714064.0,159772384.0
2416776.5,166768064.0,159787696.0
2416776.5,166684256.0,159814288.0
2412747.25,166739856.0,159731280.0
2413553.0,166730992.0,159774800.0
2415970.75,166678608.0,159744976.0
2411941.5,166666528.0,159772384.0
2416776.5,166744688.0,159783664.0
2418388.25,166718896.0,159803008.0
2415970.75,166739856.0,159795744.0
2411135.5,166735824.0,159765136.0
2419194.25,166698752.0,159792528.0
2414359.0,166751936.0,159769152.0
2418388.25,166763216.0,159792528.0
2416776.5,166770480.0,159768352.0
2420000.0,166755168.0,159798976.0
2415970.75,166801904.0,159795744.0
2417582.5,166825280.0,159790112.0
2415164.75,166814000.0,159818320.0
2413553.0,166826080.0,159718384.0
2422417.5,166853472.0,159838464.0
2424835.25,166872816.0,159865856.0
2421611.75,166899408.0,159814288.0
2426447.0,166903440.0,159856992.0
2423223.5,166899408.0,159794144.0
2431282.0,166880880.0,159848944.0
2421611.75,166862352.0,159763520.0
2420000.0,166798688.0,159769968.0
2412747.25,166793040.0,159736112.0
2415164.75,166747104.0,159779632.0
2407912.0,166701984.0,159686960.0
2411941.5,166692304.0,159656336.0
2408718.0,166656848.0,159715168.0
2403882.75,166635088.0,159717584.0
2410329.75,166658464.0,159730480.0
2411941.5,166639920.0,159726448.0
2411135.5,166617360.0,159742560.0
2411941.5,166609312.0,159712752.0
2410329.75,166597216.0,159678096.0
2407106.25,166564176.0,159742560.0
2410329.75,166618176.0,159763520.0
2401465.25,166620592.0,159662784.0
2410329.75,166652016.0,159706304.0
2407106.25,166655232.0,159739344.0
2409523.75,166610912.0,159715968.0
2407912.0,166635904.0,159745792.0
2414359.0,166687472.0,159684544.0
2406300.25,166638320.0,159720800.0
2411135.5,166614944.0,159697440.0
2411135.5,166701168.0,159727248.0
2410329.75,166689088.0,159731280.0
2411135.5,166637504.0,159724032.0
2411941.5,166692304.0,159724832.0
2411941.5,166701168.0,159761904.0
2411941.5,166717296.0,159759488.0
2415970.75,166693120.0,159750624.0
2408718.0,166722928.0,159698240.0
2412747.25,166722928.0,159774000.0
2412747.25,166750336.0,159783664.0
2413553.0,166738240.0,159772384.0
2410329.75,166755968.0,159788496.0
2411941.5,166787392.0,159750624.0
2412747.25,166752752.0,159760288.0
2413553.0,166814000.0,159832816.0
2419194.25,166826080.0,159780432.0
2419194.25,166858320.0,159811056.0
2416776.5,166882496.0,159840080.0
2422417.5,166894576.0,159896480.0
2420000.0,166900224.0,159787696.0
2420805.75,166901024.0,159852160.0
2412747.25,166883296.0,159744176.0
2418388.25,166829312.0,159770768.0
2418388.25,166806736.0,159744976.0
2411941.5,166748720.0,159765936.0
2415164.75,166697136.0,159746592.0
2409523.75,166669744.0,159713552.0
2405494.5,166641536.0,159704688.0
2407912.0,166672960.0,159735312.0
2411941.5,166629456.0,159663584.0
2403077.0,166642352.0,159681312.0
2403077.0,166611728.0,159652304.0
2401465.25,166601248.0,159764320.0
2408718.0,166634288.0,159681312.0
2404688.75,166643152.0,159667616.0
2408718.0,166649600.0,159748208.0
2405494.5,166633472.0,159695024.0
2407912.0,166611728.0,159729664.0
2407912.0,166602048.0,159690176.0
2409523.75,166659264.0,159732896.0
2407912.0,166654432.0,159682128.0
2403077.0,166631872.0,159647472.0
2411135.5,166647184.0,159730480.0
2410329.75,166697136.0,159665200.0
2409523.75,166670544.0,159691792.0
2407106.25,166646368.0,159695824.0
2412747.25,166666528.0,159732080.0
2412747.25,166680224.0,159737728.0
2408718.0,166702784.0,159719200.0
2410329.75,166691504.0,159721616.0
2407106.25,166681824.0,159726448.0
2402271.0,166762416.0,159728064.0
2411135.5,166677808.0,159736112.0
2407912.0,166767248.0,159742560.0
2413553.0,166759200.0,159776416.0
2413553.0,166784976.0,159721616.0
2407106.25,166762416.0,159759488.0
2411135.5,166823664.0,159823152.0
2415970.75,166852672.0,159790912.0
2412747.25,166869600.0,159720000.0
2412747.25,166906672.0,159854576.0
2413553.0,166873632.0,159812672.0
2414359.0,166891360.0,159792528.0
2418388.25,166908272.0,159794144.0
2415970.75,166926000.0,159832816.0
2415970.75,166917952.0,159819120.0
2416776.5,166948576.0,159799776.0
2415164.75,166894576.0,159798176.0
2419194.25,166888128.0,159761104.0
2410329.75,166868784.0,159770768.0
2409523.75,166824464.0,159751424.0
2406300.25,166751136.0,159786080.0
2411135.5,166793840.0,159774800.0
2404688.75,166747920.0,159758688.0
2405494.5,166718096.0,159733696.0
2409523.75,166718896.0,159787696.0
2399047.5,166716480.0,159718384.0
2402271.0,166708432.0,159720800.0
2407106.25,166701984.0,159679712.0
2404688.75,166657648.0,159722416.0
2408718.0,166690688.0,159717584.0
2405494.5,166753552.0,159759488.0
2409523.75,166676992.0,159794944.0
2407912.0,166710848.0,159793328.0
2404688.75,166690688.0,159790112.0
2406300.25,166703584.0,159743376.0
2418388.25,166800288.0,159740960.0
2409523.75,166725344.0,159707104.0
2413553.0,166789824.0,159759488.0
2403077.0,166755968.0,159805424.0
2408718.0,166795456.0,159758688.0
2408718.0,166735024.0,159741760.0
2404688.75,166791424.0,159708720.0
2412747.25,166783376.0,159758688.0
2413553.0,166784176.0,159752240.0
2409523.75,166826880.0,159745792.0
2403882.75,166784176.0,159748208.0
2406300.25,166814800.0,159749008.0
2414359.0,166780144.0,159786080.0
2407912.0,166859120.0,159782864.0
2411135.5,166894576.0,159817504.0
2414359.0,166898608.0,159807040.0
2409523.75,166875232.0,159765936.0
2418388.25,166923584.0,159874720.0
2411941.5,166895392.0,159844096.0
2412747.25,166920368.0,159827984.0
2412747.25,166962272.0,159789312.0
2412747.25,166937296.0,159838464.0
2418388.25,167051728.0,159895680.0
2417582.5,167044464.0,159882784.0
2417582.5,167015456.0,159845712.0
2420805.75,167010624.0,159877952.0
2417582.5,167085568.0,159895680.0
2416776.5,167084768.0,159878752.0
2422417.5,167108128.0,159881168.0
2419194.25,167082352.0,159851360.0
2419194.25,167071872.0,159774000.0
2413553.0,167034800.0,159821536.0
2415164.75,167013840.0,159845712.0
2414359.0,166972752.0,159798176.0
2408718.0,166956624.0,159744976.0
2413553.0,166913120.0,159793328.0
2417582.5,166914720.0,159752240.0
2416776.5,166918752.0,159785280.0
2415970.75,166839776.0,159762704.0
2411135.5,166847040.0,159757072.0
2414359.0,166887328.0,159774800.0
2413553.0,166907472.0,159832816.0
2418388.25,166858320.0,159772384.0
2411941.5,166900224.0,159777216.0
2414359.0,166893776.0,159791728.0
2408718.0,166918752.0,159781248.0
2415970.75,166928432.0,159781248.0
2412747.25,166946960.0,159802192.0
2419194.25,166963072.0,159805424.0
2415970.75,166984832.0,159834432.0
2415970.75,166992080.0,159817504.0
2421611.75,166983216.0,159828784.0
2413553.0,166969520.0,159832816.0
2412747.25,166996112.0,159804608.0
2420000.0,166934064.0,159787696.0
2420805.75,166958240.0,159860224.0
2420000.0,166926816.0,159785280.0
2418388.25,166951792.0,159830400.0
2415970.75,166957440.0,159783664.0
2423223.5,166981616.0,159798176.0
2422417.5,167002560.0,159861824.0
2422417.5,167016256.0,159787696.0
2421611.75,167059776.0,159881984.0
2416776.5,167082352.0,159820736.0
2424835.25,167129888.0,159926304.0
2428864.5,167094432.0,159865056.0
2421611.75,167106528.0,159832016.0
2422417.5,167086368.0,159863440.0
2421611.75,167153264.0,159877136.0
2422417.5,167125056.0,159841680.0
2420000.0,167166960.0,159909376.0
2424029.25,167154064.0,159897296.0
2432893.75,167165344.0,159998832.0
2428864.5,167202416.0,159920656.0
2424029.25,167237072.0,159932752.0
2425641.0,167225792.0,159927920.0
2432893.75,167259632.0,159951280.0
2427252.75,167260432.0,159920656.0
2420805.75,167217728.0,159874720.0
2425641.0,167224176.0,159903744.0
2422417.5,167126672.0,159910176.0
2421611.75,167082352.0,159795744.0
2420000.0,167085568.0,159772384.0
2416776.5,167025936.0,159786880.0
2417582.5,167001760.0,159809456.0
2416776.5,167046880.0,159774000.0
2420000.0,166989664.0,159751424.0
2420000.0,166996928.0,159752240.0
2411941.5,166992080.0,159734512.0
2418388.25,167020288.0,159748208.0
2423223.5,167018688.0,159829600.0
2420000.0,166971136.0,159782864.0
2416776.5,167009008.0,159769968.0
2423223.5,167017872.0,159758688.0
2414359.0,166989664.0,159758688.0
2425641.0,167042048.0,159815904.0
2415970.75,167060592.0,159827984.0
2423223.5,167023520.0,159832816.0
2420805.75,167054144.0,159807040.0
2416776.5,167057360.0,159780432.0
2419194.25,167004176.0,159750624.0
2414359.0,167074288.0,159801392.0
2425641.0,167059776.0,159834432.0
2424029.25,167036416.0,159801392.0
2423223.5,167052528.0,159781248.0
2420805.75,167009008.0,159753040.0
2420000.0,167068640.0,159783664.0
2430476.25,167064608.0,159789312.0
2426447.0,167082352.0,159807840.0
2423223.5,167087184.0,159790912.0
2420000.0,167073472.0,159744976.0
2427252.75,167115392.0,159775600.0
2426447.0,167148432.0,159800592.0
2424029.25,167168576.0,159801392.0
2427252.75,167163744.0,159846528.0
2426447.0,167158896.0,159830400.0
2424835.25,167208064.0,159829600.0
2428864.5,167216928.0,159894864.0
2427252.75,167187104.0,159846528.0
2426447.0,167226592.0,159828784.0
2432088.0,167270912.0,159895680.0
2423223.5,167297504.0,159881984.0
2431282.0,167274944.0,159865056.0
2431282.0,167307184.0,159923888.0
2432893.75,167357952.0,159927104.0
2429670.25,167338608.0,159905344.0
2431282.0,167367616.0,159897296.0
2436923.0,167334576.0,159869888.0
2424029.25,167285424.0,159831216.0
2426447.0,167255600.0,159814288.0
2429670.25,167249152.0,159857808.0
2417582.5,167135536.0,159796560.0
2428864.5,167136336.0,159821536.0
2426447.0,167104096.0,159784464.0
2424835.25,167100080.0,159764320.0
2421611.75,167042864.0,159774000.0
2421611.75,167103296.0,159855392.0
2420805.75,167011424.0,159788496.0
2421611.75,167104096.0,159761104.0
2420000.0,167042048.0,159764320.0
2420805.75,167071872.0,159780432.0
2416776.5,167034800.0,159744976.0
2418388.25,167009008.0,159758688.0
2420805.75,167089600.0,159770768.0
2420000.0,167079920.0,159798976.0
2424029.25,167089600.0,159757872.0
2420805.75,167044464.0,159765136.0
2419194.25,167080736.0,159826368.0
2420000.0,167137136.0,159829600.0
2421611.75,167041248.0,159784464.0
2426447.0,167036416.0,159761904.0
2425641.0,167097648.0,159818320.0
2424835.25,167079920.0,159790112.0
2432088.0,167108128.0,159798176.0
2420805.75,167101680.0,159784464.0
2422417.5,167084768.0,159794144.0
2426447.0,167104912.0,159824768.0
2426447.0,167163744.0,159833632.0
2422417.5,167113776.0,159853776.0
2424029.25,167087184.0,159813472.0
2427252.75,167159712.0,159850544.0
2423223.5,167125056.0,159815904.0
2421611.75,167133920.0,159819920.0
2429670.25,167165344.0,159756256.0
2422417.5,167185488.0,159811872.0
2428058.5,167194352.0,159847328.0
2425641.0,167179040.0,159803008.0
2428864.5,167219344.0,159873120.0
2427252.75,167216928.0,159865056.0
2427252.75,167254000.0,159867472.0
2430476.25,167278976.0,159803808.0
2430476.25,167314432.0,159886000.0
2431282.0,167301536.0,159904544.0
2433699.75,167323296.0,159858608.0
2428864.5,167315232.0,159906960.0
2428864.5,167332160.0,159889232.0
2436117.25,167357136.0,159936784.0
2428058.5,167320080.0,159840080.0
2424835.25,167335392.0,159814288.0
2422417.5,167263664.0,159851360.0
2422417.5,167220960.0,159864256.0
2428058.5,167120224.0,159840080.0
2421611.75,167072672.0,159799776.0
2418388.25,167052528.0,159783664.0
2416776.5,167048496.0,159794144.0
2424029.25,167042864.0,159769152.0
2417582.5,167008208.0,159688576.0
2424835.25,167024320.0,159749824.0
2421611.75,167009008.0,159720800.0
2415164.75,166990480.0,159686960.0
2415164.75,166975968.0,159735312.0
2422417.5,166984032.0,159738528.0
2420000.0,167051728.0,159713552.0
2424835.25,167017872.0,159753040.0
2420805.75,166989664.0,159743376.0
2420000.0,167024320.0,159732896.0
2424835.25,167018688.0,159718384.0
2428058.5,166991280.0,159626528.0
2418388.25,167038016.0,159737728.0
2421611.75,167061392.0,159707104.0
2430476.25,167052528.0,159765936.0
2424835.25,166980800.0,159759488.0
2423223.5,167055744.0,159760288.0
2423223.5,167029968.0,159760288.0
2424835.25,167010624.0,159665200.0
2423223.5,167012240.0,159747392.0
2424029.25,167016256.0,159679712.0
2430476.25,167104096.0,159785280.0
2432893.75,167022704.0,159757072.0
2423223.5,167071872.0,159785280.0
2424029.25,167092016.0,159816704.0
2429670.25,167071056.0,159801392.0
2424029.25,167088784.0,159793328.0
2424029.25,167133120.0,159793328.0
2427252.75,167138752.0,159822352.0
2433699.75,167149232.0,159799776.0
2428058.5,167173408.0,159849744.0
2432088.0,167173408.0,159807840.0
2432088.0,167202416.0,159836848.0
2432088.0,167187920.0,159855392.0
2431282.0,167225792.0,159837648.0
2434505.5,167212896.0,159847328.0
2432088.0,167245136.0,159853776.0
2434505.5,167199200.0,159887616.0
2436923.0,167254800.0,159892448.0
2433699.75,167239488.0,159881984.0
2441758.25,167291056.0,159960960.0
2437729.0,167258832.0,159867472.0
2432893.75,167229824.0,159817504.0
2432088.0,167198384.0,159804608.0
2434505.5,167125856.0,159811056.0
2435311.25,167110544.0,159746592.0
2430476.25,167053328.0,159820736.0
2428864.5,167007392.0,159735312.0
2425641.0,167071056.0,159767552.0
2431282.0,166981616.0,159769968.0
2424835.25,166980000.0,159786880.0
2430476.25,166967104.0,159786080.0
2431282.0,166988864.0,159807040.0
2428864.5,166937296.0,159784464.0
2430476.25,166984832.0,159765136.0
2432088.0,166950176.0,159789312.0
2430476.25,166899408.0,159790112.0
2424835.25,166901024.0,159707920.0
2437729.0,166980800.0,159794144.0
2436923.0,166935680.0,159779632.0
2436117.25,166953408.0,159790912.0
2439340.75,166950992.0,159789312.0
2436117.25,166984032.0,159774000.0
2436923.0,166966304.0,159762704.0
2432088.0,166963888.0,159771568.0
2433699.75,166948576.0,159733696.0
2432088.0,166967104.0,159760288.0
2436923.0,166981616.0,159784464.0
2435311.25,166924400.0,159778016.0
2432088.0,166975168.0,159782864.0
2432088.0,166964688.0,159721616.0
2434505.5,166986448.0,159738528.0
2433699.75,166957440.0,159769968.0
2435311.25,166941312.0,159765136.0
2430476.25,166955024.0,159744976.0
2425641.0,166969520.0,159742560.0
2432088.0,166980800.0,159794944.0
2432893.75,166995312.0,159780432.0
2432088.0,167010624.0,159735312.0
2434505.5,167036416.0,159790112.0
2431282.0,167029968.0,159819120.0
2438534.75,167088784.0,159799776.0
2427252.75,167021904.0,159795744.0
2430476.25,167088784.0,159794944.0
2430476.25,167085568.0,159809456.0
2438534.75,167081536.0,159830400.0
2431282.0,167081536.0,159797360.0
2436117.25,167131504.0,159846528.0
2430476.25,167103296.0,159767552.0
2432893.75,167062192.0,159747392.0
2434505.5,167047696.0,159770768.0
2420805.75,166934064.0,159681312.0
2419194.25,166896192.0,159747392.0
2423223.5,166861536.0,159719200.0
2420000.0,166790624.0,159648272.0
2418388.25,166759200.0,159636192.0
2422417.5,166805936.0,159696624.0
2416776.5,166681024.0,159591872.0
2418388.25,166721312.0,159625712.0
2420000.0,166702784.0,159683744.0
2415970.75,166697136.0,159623296.0
2417582.5,166661680.0,159635392.0
2424029.25,166693920.0,159615232.0
2411941.5,166631872.0,159616848.0
2414359.0,166678608.0,159648272.0
2411941.5,166697952.0,159613632.0
2412747.25,166701168.0,159587840.0
2415970.75,166728576.0,159658752.0
2411941.5,166767248.0,159678096.0
2420000.0,166785792.0,159762704.0
2416776.5,166771280.0,159772384.0
2416776.5,166793040.0,159793328.0
2418388.25,166739856.0,159740960.0
2412747.25,166720512.0,159663584.0
2415970.75,166672160.0,159599920.0
2407106.25,166697136.0,159644256.0
2416776.5,166729376.0,159666816.0
2416776.5,166692304.0,159664400.0
2424029.25,166684256.0,159711936.0
2416776.5,166675392.0,159639408.0
2415164.75,166710848.0,159712752.0
2415970.75,166702784.0,159621680.0
2413553.0,166748720.0,159670848.0
2418388.25,166686672.0,159683744.0
2419194.25,166723744.0,159671648.0
2415970.75,166786592.0,159680512.0
2414359.0,166763216.0,159673264.0
2423223.5,166778528.0,159715968.0
2419194.25,166832528.0,159691792.0
2412747.25,166822048.0,159734512.0
2412747.25,166838976.0,159706304.0
2417582.5,166848640.0,159722416.0
2417582.5,166786592.0,159737728.0
2415970.75,166876848.0,159728864.0
2413553.0,166875232.0,159730480.0
2420805.75,166826080.0,159734512.0
2407912.0,166765648.0,159628944.0
2411135.5,166714864.0,159652304.0
2408718.0,166597216.0,159631360.0
2411135.5,166610912.0,159613632.0
2403077.0,166564176.0,159619264.0
2409523.75,166528720.0,159565280.0
2405494.5,166486816.0,159593472.0
2409523.75,166454576.0,159633776.0
2415970.75,166444096.0,159614432.0
2408718.0,166475536.0,159634576.0
2408718.0,166454576.0,159590256.0
2406300.25,166378832.0,159628944.0
2404688.75,166432016.0,159577360.0
2404688.75,166413472.0,159622496.0
2408718.0,166441680.0,159541904.0
2411941.5,166423152.0,159661168.0
2410329.75,166433632.0,159589456.0
2411135.5,166436848.0,159616848.0
2405494.5,166445712.0,159574144.0
2405494.5,166439264.0,159621680.0
2403882.75,166427984.0,159609600.0
2407106.25,166444096.0,159589456.0
2406300.25,166416704.0,159622496.0
2403077.0,166436848.0,159574144.0
2411135.5,166452960.0,159624096.0
2408718.0,166388496.0,159549968.0
2403882.75,166425568.0,159553184.0
2407106.25,166469088.0,159631360.0
2407106.25,166458608.0,159586224.0
2414359.0,166437648.0,159607184.0
2408718.0,166449744.0,159576560.0
2409523.75,166456192.0,159608784.0
2409523.75,166453776.0,159617648.0
2412747.25,166468272.0,159651504.0
2406300.25,166448944.0,159618464.0
2415164.75,166543216.0,159636192.0
2413553.0,166513408.0,159658752.0
2414359.0,166502928.0,159660368.0
2410329.75,166548864.0,159660368.0
2412747.25,166537584.0,159711136.0
2413553.0,166610912.0,159666000.0
2410329.75,166639920.0,159641024.0
2416776.5,166608496.0,159718384.0
2411941.5,166649600.0,159683744.0
2402271.0,166587552.0,159641024.0
2413553.0,166569008.0,159626528.0
2403882.75,166519040.0,159595904.0
2404688.75,166451360.0,159581392.0
2404688.75,166402192.0,159537872.0
2402271.0,166315168.0,159513696.0
2403077.0,166324832.0,159512896.0
2401465.25,166268432.0,159528208.0
2396630.0,166237808.0,159554000.0
2404688.75,166277296.0,159581392.0
2399853.5,166246672.0,159545936.0
2399047.5,166223296.0,159541904.0
2402271.0,166200736.0,159566880.0
2402271.0,166171728.0,159563664.0
2403882.75,166185424.0,159529008.0
2401465.25,166190256.0,159565280.0
2400659.25,166241024.0,159570112.0
2400659.25,166228944.0,159543520.0
2400659.25,166225712.0,159559632.0
2403882.75,166248272.0,159586224.0
2407106.25,166223296.0,159616848.0
2400659.25,166220080.0,159523376.0
2402271.0,166219264.0,159554800.0
2399853.5,166224096.0,159591872.0
2400659.25,166207984.0,159590256.0
2395018.25,166178976.0,159512080.0
2405494.5,166212816.0,159555600.0
2397436.0,166203952.0,159531424.0
2398241.75,166224912.0,159458896.0
2398241.75,166188640.0,159458096.0
2390989.0,166176560.0,159399264.0
2390183.25,166206368.0,159444400.0
2394212.5,166174944.0,159429888.0
2390183.25,166179776.0,159429888.0
2394212.5,166222496.0,159397648.0
2395824.25,166190256.0,159432304.0
2390183.25,166227328.0,159424256.0
2395018.25,166282928.0,159459712.0
2393406.5,166235392.0,159442784.0
2394212.5,166232960.0,159468576.0
2390989.0,166261984.0,159438752.0
2395018.25,166308720.0,159491136.0
2399853.5,166367552.0,159513696.0
2399047.5,166368352.0,159532240.0
2397436.0,166378832.0,159531424.0
2396630.0,166343376.0,159543520.0
2399047.5,166330480.0,159521760.0
2397436.0,166304688.0,159514512.0
2390183.25,166247472.0,159490336.0
2391794.75,166206368.0,159408944.0
2389377.25,166114512.0,159406528.0
2387765.5,166116112.0,159434720.0
2388571.5,166104032.0,159421824.0
2390989.0,166072608.0,159429888.0
2391794.75,166080656.0,159423440.0
2387765.5,166009744.0,159405712.0
2386153.75,166015392.0,159393632.0
2390183.25,166022640.0,159408944.0
2386153.75,166003296.0,159418608.0
2386153.75,165998464.0,159412160.0
2384542.0,165983152.0,159415392.0
2388571.5,166006528.0,159462928.0
2386959.75,166018608.0,159467760.0
2389377.25,166046000.0,159481472.0
2388571.5,166075024.0,159462128.0
2387765.5,166045200.0,159468576.0
2389377.25,166040368.0,159490336.0
2395824.25,166065344.0,159510480.0
2386959.75,166059712.0,159438752.0
2390989.0,166087104.0,159490336.0
2390989.0,166033920.0,159454864.0
2390989.0,166048432.0,159516928.0
2389377.25,166081472.0,159475824.0
2393406.5,166083888.0,159495168.0
2399853.5,166074208.0,159524976.0
2390183.25,166068576.0,159522560.0
2392600.75,166079856.0,159508864.0
2395824.25,166099200.0,159501616.0
2391794.75,166115312.0,159531424.0
2394212.5,166110480.0,159566080.0
2392600.75,166120144.0,159532240.0
2392600.75,166126592.0,159597504.0
2397436.0,166190256.0,159541104.0
2395018.25,166191872.0,159577360.0
2390989.0,166195904.0,159525792.0
2398241.75,166195088.0,159628944.0
2396630.0,166176560.0,159610400.0
2392600.75,166244256.0,159551568.0
2396630.0,166243440.0,159593472.0
2394212.5,166314352.0,159618464.0
2391794.75,166249888.0,159559632.0
2390183.25,166226528.0,159548352.0
2388571.5,166194288.0,159523376.0
2391794.75,166158832.0,159501616.0
2389377.25,166104832.0,159549968.0
2389377.25,166066160.0,159501616.0
2390989.0,165974288.0,159458096.0
2395824.25,165982352.0,159481472.0
2386153.75,165977504.0,159448432.0
2386153.75,165967840.0,159487104.0
2384542.0,165971872.0,159433920.0
2386153.75,165925136.0,159442784.0
2387765.5,165892896.0,159444400.0
2389377.25,165933184.0,159477440.0
2384542.0,165904176.0,159468576.0
2390989.0,165917872.0,159502416.0
2382930.5,165881616.0,159470176.0
2386959.75,165879200.0,159495168.0
2384542.0,165942048.0,159498384.0
2384542.0,165938016.0,159524176.0
2382930.5,165926736.0,159437136.0
2386959.75,165948496.0,159480656.0
2379707.0,165949312.0,159466160.0
2384542.0,165931568.0,159499200.0
2384542.0,165913040.0,159514512.0
2384542.0,165947696.0,159428272.0
2386153.75,165946880.0,159481472.0
2386153.75,165909824.0,159480656.0
2389377.25,165971056.0,159486304.0
2390989.0,166010544.0,159499200.0
2390989.0,165946880.0,159537872.0
2389377.25,165981536.0,159544320.0
2393406.5,165987184.0,159567696.0
2395018.25,166029888.0,159484688.0
2388571.5,166075824.0,159543520.0
2386959.75,166039568.0,159512080.0
2393406.5,166075824.0,159549152.0
2383736.25,166041984.0,159524976.0
2391794.75,166079040.0,159583808.0
2390183.25,166098384.0,159515312.0
2399853.5,166140288.0,159584608.0
2395018.25,166133840.0,159570912.0
2395018.25,166171728.0,159597504.0
2400659.25,166187840.0,159614432.0
2397436.0,166162864.0,159622496.0
2390183.25,166124176.0,159578176.0
2398241.75,166078240.0,159557216.0
2392600.75,166060512.0,159549968.0
2386959.75,166015392.0,159566080.0
2385348.0,165975904.0,159516928.0
2387765.5,165972672.0,159513696.0
2393406.5,165882416.0,159521760.0
2386959.75,165825200.0,159529008.0
2390183.25,165889664.0,159467760.0
2389377.25,165907392.0,159533040.0
2389377.25,165868720.0,159524176.0
2392600.75,165832448.0,159512080.0
2388571.5,165824400.0,159487104.0
2391794.75,165821168.0,159495968.0
2387765.5,165817136.0,159502416.0
2382124.5,165854208.0,159496784.0
2392600.75,165892896.0,159577360.0
2389377.25,165871936.0,159556416.0
2389377.25,165879200.0,159521760.0
2389377.25,165896112.0,159574144.0
2390183.25,165871136.0,159579776.0
2383736.25,165897728.0,159538688.0
2390183.25,165896112.0,159587040.0
2388571.5,165900960.0,159578176.0
2389377.25,165913840.0,159615232.0
2387765.5,165868720.0,159589456.0
2385348.0,165917872.0,159626528.0
2391794.75,165926736.0,159646672.0
2394212.5,165908208.0,159639408.0
2387765.5,165950912.0,159609600.0
2388571.5,165881616.0,159605568.0
2386959.75,165952528.0,159643440.0
2393406.5,165966224.0,159599920.0
2384542.0,165967040.0,159593472.0
2401465.25,165990400.0,159690176.0
2389377.25,165993632.0,159635392.0
2387765.5,166037952.0,159607984.0
2390989.0,166035536.0,159685344.0
2383736.25,166033120.0,159676480.0
2390989.0,166061312.0,159637808.0
2389377.25,166131424.0,159675680.0
2392600.75,166107248.0,159728064.0
2392600.75,166100000.0,159740960.0
2392600.75,166121760.0,159701472.0
2387765.5,166115312.0,159660368.0
2393406.5,166091936.0,159605568.0
2391794.75,166074208.0,159671648.0
2383736.25,165958976.0,159572528.0
2379707.0,165946880.0,159531424.0
2387765.5,165932384.0,159574144.0
2388571.5,165886448.0,159570912.0
2383736.25,165894512.0,159616848.0
2382930.5,165882416.0,159566880.0
2383736.25,165895312.0,159596704.0
2389377.25,165827616.0,159570112.0
2382930.5,165840512.0,159632960.0
2385348.0,165834064.0,159554800.0
2384542.0,165790544.0,159613632.0
2387765.5,165794576.0,159593472.0
2382930.5,165783296.0,159516112.0
2380512.75,165830032.0,159573328.0
2379707.0,165827616.0,159567696.0
2385348.0,165879200.0,159596704.0
2387765.5,165838896.0,159541104.0
2382930.5,165906592.0,159588640.0
2376483.5,165859856.0,159592672.0
2381318.75,165865488.0,159580592.0
2378095.25,165862272.0,159586224.0
2386153.75,165836480.0,159529008.0
2382124.5,165859040.0,159546736.0
2386153.75,165870336.0,159607184.0
2382930.5,165873552.0,159591056.0
2382930.5,165839712.0,159580592.0
2390183.25,165852608.0,159577360.0
2385348.0,165844544.0,159570112.0
2393406.5,165912240.0,159629744.0
2389377.25,165929968.0,159651504.0
2388571.5,165947696.0,159646672.0
2389377.25,165936416.0,159653120.0
2388571.5,165963008.0,159603152.0
2391794.75,165976704.0,159639408.0
2388571.5,166008944.0,159663584.0
2388571.5,165992016.0,159663584.0
2390183.25,166040368.0,159612816.0
2381318.75,166050848.0,159614432.0
2393406.5,166079040.0,159658752.0
2390989.0,166079856.0,159679712.0
2394212.5,166083072.0,159690176.0
2395824.25,166130624.0,159688576.0
2395018.25,166110480.0,159707920.0
2387765.5,166145136.0,159736928.0
2386959.75,166087104.0,159645056.0
2390183.25,166028272.0,159610400.0
2386153.75,166035536.0,159626528.0
2384542.0,166033120.0,159649088.0
2382930.5,165940432.0,159621680.0
2382124.5,165909008.0,159613632.0
2383736.25,165920288.0,159563664.0
2386959.75,165867104.0,159555600.0
2386959.75,165863888.0,159632160.0
2386959.75,165892080.0,159589456.0
2385348.0,165860656.0,159645056.0
2384542.0,165856624.0,159549152.0
2378901.0,165864688.0,159595088.0
2385348.0,165831648.0,159556416.0
2382124.5,165853408.0,159578176.0
2381318.75,165877584.0,159587840.0
2378095.25,165874352.0,159520144.0
2386959.75,165886448.0,159566080.0
2387765.5,165883216.0,159542704.0
2381318.75,165888864.0,159520960.0
2381318.75,165869520.0,159610400.0
2385348.0,165836480.0,159539488.0
2385348.0,165874352.0,159530624.0
2383736.25,165867104.0,159524176.0
2386153.75,165888864.0,159564464.0
2381318.75,165894512.0,159556416.0
2386153.75,165877584.0,159608784.0
2381318.75,165922704.0,159525792.0
2385348.0,165891280.0,159572528.0
2384542.0,165932384.0,159570112.0
2382930.5,165932384.0,159516928.0
2386959.75,165929152.0,159603152.0
2386959.75,165943664.0,159570912.0
2382930.5,165965424.0,159570912.0
2380512.75,165968640.0,159562864.0
2382930.5,165989600.0,159584608.0
2389377.25,165950912.0,159624096.0
2385348.0,166049232.0,159620880.0
2390183.25,166039568.0,159620080.0
2383736.25,166059712.0,159600736.0
2387765.5,166089520.0,159584608.0
2386153.75,166079856.0,159597504.0
2389377.25,166071792.0,159633776.0
2379707.0,166131424.0,159628128.0
2387765.5,166145136.0,159635392.0
2387765.5,166160432.0,159673264.0
2391794.75,166154000.0,159603952.0
2387765.5,166075824.0,159574144.0
2387765.5,166048432.0,159607984.0
2379707.0,165997648.0,159565280.0
2379707.0,165954144.0,159592672.0
2384542.0,165946880.0,159558832.0
2381318.75,165938016.0,159491136.0
2382930.5,165928352.0,159487920.0
2382930.5,165933184.0,159529008.0
2378901.0,165879200.0,159520960.0
2380512.75,165846960.0,159522560.0
2378095.25,165875968.0,159495968.0
2378901.0,165875168.0,159493552.0
2380512.75,165905792.0,159455680.0
2378095.25,165880000.0,159483072.0
2378095.25,165857440.0,159476624.0
2378095.25,165892896.0,159498384.0
2375677.75,165938016.0,159529824.0
2375677.75,165913840.0,159554800.0
2382124.5,165911424.0,159491936.0
2378095.25,165904176.0,159454864.0
2382124.5,165935600.0,159524976.0
2381318.75,165925136.0,159458896.0
2381318.75,165927552.0,159537072.0
2385348.0,165934000.0,159575744.0
2379707.0,165904976.0,159495968.0
2382124.5,165956560.0,159528208.0
2382930.5,165953328.0,159548352.0
2389377.25,165954144.0,159555600.0
2382930.5,165963008.0,159529008.0
2382124.5,165998464.0,159571728.0
2382124.5,165993632.0,159502416.0
2386153.75,165989600.0,159545136.0
2378095.25,165984768.0,159510480.0
2381318.75,166017808.0,159574944.0
2383736.25,166025856.0,159608784.0
2386959.75,166050032.0,159587040.0
2384542.0,166073408.0,159580592.0
2380512.75,166067760.0,159566880.0
2385348.0,166111280.0,159653920.0
2378901.0,166095168.0,159612816.0
2384542.0,166120960.0,159593472.0
2385348.0,166115312.0,159619264.0
2386959.75,166187040.0,159624912.0
2385348.0,166195904.0,159629744.0
2390989.0,166185424.0,159667616.0
2390989.0,166240224.0,159664400.0
2393406.5,166256336.0,159697440.0
2389377.25,166260368.0,159670848.0
2390989.0,166255536.0,159624096.0
2386153.75,166227328.0,159643440.0
2397436.0,166199120.0,159591056.0
2387765.5,166109664.0,159563664.0
2386959.75,166124976.0,159515312.0
2384542.0,166053264.0,159571728.0
2386959.75,166043584.0,159582192.0
2386153.75,165989600.0,159523376.0
2383736.25,166026672.0,159541104.0
2384542.0,166012960.0,159542704.0
2380512.75,165963808.0,159564464.0
2379707.0,166000080.0,159531424.0
2379707.0,165987984.0,159500000.0
2381318.75,165971056.0,159501616.0
2379707.0,165964608.0,159538688.0
2384542.0,165997648.0,159531424.0
2384542.0,166018608.0,159570912.0
2383736.25,166008128.0,159545136.0
2387765.5,166008944.0,159542704.0
2386153.75,166042784.0,159547552.0
2386153.75,166022640.0,159530624.0
2390183.25,165997648.0,159588640.0
2384542.0,166006528.0,159520144.0
2394212.5,166016992.0,159574144.0
2390183.25,166012960.0,159495968.0
2387765.5,165973472.0,159504832.0
2388571.5,166067760.0,159539488.0
2388571.5,166054864.0,159570912.0
2395018.25,166070992.0,159534656.0
2393406.5,166087920.0,159603952.0
2391794.75,166064544.0,159562864.0
2390183.25,166106448.0,159594288.0
2399047.5,166108864.0,159584608.0
2394212.5,166110480.0,159582192.0
2402271.0,166129824.0,159605568.0
2398241.75,166166880.0,159612816.0
2393406.5,166116112.0,159573328.0
2392600.75,166176560.0,159617648.0
2401465.25,166142704.0,159656336.0
2396630.0,166180592.0,159631360.0
2399853.5,166225712.0,159668432.0
2403882.75,166218464.0,159645856.0
2399853.5,166267616.0,159661984.0
2399047.5,166278896.0,159687760.0
2402271.0,166300656.0,159716784.0
2399047.5,166294208.0,159682928.0
2404688.75,166284544.0,159702272.0
2398241.75,166336112.0,159683744.0
2411135.5,166392528.0,159730480.0
2403077.0,166365936.0,159696624.0
2403882.75,166368352.0,159667616.0
2403882.75,166332896.0,159681312.0
2403077.0,166278096.0,159699856.0
2398241.75,166206368.0,159600736.0
2401465.25,166199920.0,159625712.0
2402271.0,166132240.0,159566080.0
2401465.25,166166880.0,159529008.0
2399047.5,166118528.0,159537072.0
2398241.75,166125792.0,159537072.0
2399853.5,166074208.0,159571728.0
2391794.75,166037952.0,159538688.0
2400659.25,166063744.0,159516112.0
2396630.0,166055680.0,159537072.0
2399047.5,166049232.0,159535456.0
2398241.75,166042784.0,159555600.0
2399853.5,166072608.0,159532240.0
2398241.75,166097584.0,159505648.0
2400659.25,166084688.0,159540288.0
2403882.75,166088720.0,159544320.0
2399047.5,166079856.0,159490336.0
2398241.75,166099200.0,159568496.0
2403882.75,166045200.0,159492752.0
2401465.25,166104832.0,159484688.0
2401465.25,166088720.0,159547552.0
2401465.25,166104832.0,159533040.0
2404688.75,166102416.0,159508064.0
2395824.25,166124176.0,159497584.0
2397436.0,166097584.0,159544320.0
2403077.0,166104832.0,159573328.0
2395018.25,166117728.0,159541904.0
2399853.5,166108864.0,159529824.0
2394212.5,166147552.0,159503216.0
2399853.5,166149152.0,159522560.0
2390183.25,166145136.0,159540288.0
2403077.0,166165280.0,159575744.0
2399853.5,166183808.0,159571728.0
2399853.5,166190256.0,159614432.0
2399047.5,166210400.0,159636992.0
2401465.25,166219264.0,159617648.0
2406300.25,166274864.0,159667616.0
2406300.25,166246672.0,159656336.0
2405494.5,166324832.0,159645056.0
2407912.0,166349008.0,159645856.0
2405494.5,166311136.0,159587840.0
2414359.0,166364320.0,159640224.0
2406300.25,166391728.0,159696624.0
2408718.0,166397360.0,159680512.0
2404688.75,166398976.0,159660368.0
2407106.25,166411872.0,159647472.0
2411135.5,166417504.0,159707920.0
2409523.75,166440880.0,159757072.0
2406300.25,166418320.0,159654720.0
2409523.75,166403008.0,159643440.0
2405494.5,166337728.0,159611216.0
2400659.25,166289376.0,159625712.0
2404688.75,166250688.0,159577360.0
2404688.75,166271648.0,159583008.0
2399853.5,166221680.0,159587040.0
2399047.5,166185424.0,159578176.0
2399047.5,166180592.0,159555600.0
2395018.25,166170912.0,159521760.0
2404688.75,166179776.0,159587040.0
2399853.5,166133040.0,159583808.0
2405494.5,166124176.0,159540288.0
2403077.0,166149968.0,159537072.0
2401465.25,166145936.0,159503216.0
2403077.0,166099200.0,159512896.0
2396630.0,166121760.0,159514512.0
2403882.75,166219264.0,159593472.0
2402271.0,166165280.0,159547552.0
2399047.5,166157216.0,159573328.0
2399853.5,166174144.0,159549152.0
2396630.0,166195088.0,159565280.0
2399047.5,166183008.0,159555600.0
2399047.5,166149968.0,159523376.0
2404688.75,166158832.0,159553184.0
2403882.75,166162048.0,159589456.0
2403882.75,166176560.0,159572528.0
2407106.25,166161248.0,159562048.0
2405494.5,166141904.0,159509664.0
2407912.0,166220080.0,159514512.0
2401465.25,166158016.0,159510480.0
2405494.5,166207984.0,159547552.0
2403077.0,166169312.0,159486304.0
2405494.5,166155600.0,159525792.0
2409523.75,166187840.0,159553184.0
2406300.25,166201536.0,159564464.0
2399047.5,166165280.0,159536256.0
2406300.25,166236192.0,159574944.0
2411135.5,166195088.0,159607184.0
2405494.5,166251504.0,159534656.0
2406300.25,166282928.0,159506448.0
2405494.5,166279712.0,159605568.0
2406300.25,166314352.0,159573328.0
2407912.0,166346592.0,159609600.0
2411135.5,166324832.0,159624096.0
2407912.0,166336928.0,159636192.0
2410329.75,166345792.0,159608784.0
2412747.25,166349008.0,159630544.0
2412747.25,166379632.0,159628128.0
2412747.25,166377216.0,159675680.0
2411135.5,166357872.0,159590256.0
2407912.0,166303888.0,159577360.0
2401465.25,166261168.0,159558016.0
2403077.0,166225712.0,159532240.0
2403882.75,166162864.0,159544320.0
2405494.5,166121760.0,159504832.0
2407106.25,166111280.0,159465344.0
2400659.25,166108864.0,159494352.0
2400659.25,166102416.0,159481472.0
2399047.5,166075024.0,159446000.0
2399047.5,166079856.0,159466960.0
2398241.75,166045200.0,159441168.0
2397436.0,166027472.0,159413776.0
2395018.25,166032304.0,159463744.0
2398241.75,166004096.0,159428272.0
2403882.75,166063744.0,159470176.0
2400659.25,166033920.0,159454864.0
2399853.5,166053264.0,159480656.0
2403077.0,166031504.0,159411360.0
2403882.75,166059712.0,159451648.0
2393406.5,165997648.0,159461312.0
2397436.0,166012960.0,159418608.0
2399047.5,166039568.0,159451648.0
2399853.5,166046816.0,159435536.0
2396630.0,166046000.0,159477440.0
2402271.0,166040368.0,159485488.0
2403077.0,166061312.0,159473408.0
2406300.25,166031504.0,159446000.0
2403077.0,166058096.0,159480656.0
2405494.5,166037952.0,159508064.0
2404688.75,166050848.0,159421824.0
2402271.0,166038752.0,159455680.0
2403077.0,166029088.0,159447616.0
2399047.5,166076624.0,159487104.0
2403077.0,166059712.0,159458096.0
2395018.25,166070992.0,159464544.0
2402271.0,166087104.0,159466160.0
2403077.0,166100000.0,159471792.0
2401465.25,166088720.0,159449232.0
2403882.75,166164464.0,159468576.0
2407912.0,166108864.0,159514512.0
2400659.25,166125792.0,159543520.0
2405494.5,166111280.0,159541104.0
2403882.75,166158832.0,159524976.0
2409523.75,166182192.0,159567696.0
2407912.0,166216048.0,159534656.0
2412747.25,166254720.0,159587040.0
2410329.75,166248272.0,159604768.0
2412747.25,166261984.0,159596704.0
2411941.5,166247472.0,159527392.0
2410329.75,166241024.0,159567696.0
2408718.0,166145936.0,159459712.0
2406300.25,166132240.0,159479856.0
2398241.75,166025056.0,159425056.0
2396630.0,166041984.0,159388784.0
2404688.75,165985568.0,159410544.0
2401465.25,165949312.0,159481472.0
2400659.25,165917072.0,159422640.0
2397436.0,165901760.0,159408944.0
2399047.5,165884032.0,159433920.0
2403882.75,165919488.0,159400880.0
2400659.25,165880800.0,159429888.0
2397436.0,165860656.0,159433120.0
2396630.0,165868720.0,159383952.0
2390183.25,165846960.0,159414576.0
2402271.0,165833264.0,159392016.0
2398241.75,165772016.0,159371872.0
2398241.75,165820368.0,159417808.0
2395018.25,165824400.0,159365424.0
2398241.75,165829232.0,159367040.0
2399047.5,165801824.0,159383952.0
2394212.5,165819568.0,159333184.0
2397436.0,165811504.0,159365424.0
2402271.0,165794576.0,159358976.0
2399853.5,165823584.0,159393632.0
2405494.5,165836480.0,159433920.0
2405494.5,165823584.0,159383152.0
2400659.25,165830032.0,159385568.0
2397436.0,165802640.0,159391216.0
2399047.5,165755904.0,159408944.0
2400659.25,165861472.0,159377504.0
2401465.25,165781680.0,159391216.0
2395018.25,165808272.0,159386368.0
2391794.75,165838096.0,159433920.0
2400659.25,165863072.0,159416992.0
2394212.5,165855024.0,159396848.0
2399047.5,165874352.0,159422640.0
2401465.25,165876784.0,159430688.0
2401465.25,165924320.0,159435536.0
2401465.25,165904176.0,159425056.0
2404688.75,165923520.0,159420224.0
2400659.25,165914656.0,159417808.0
2407106.25,165977504.0,159503216.0
2405494.5,165951728.0,159505648.0
2399853.5,165987184.0,159481472.0
2407106.25,166010544.0,159519344.0
2406300.25,166026672.0,159438752.0
2408718.0,166032304.0,159487920.0
2410329.75,166076624.0,159481472.0
2407106.25,166037952.0,159437952.0
2404688.75,166000080.0,159468576.0
2402271.0,165979920.0,159434720.0
2400659.25,165909008.0,159417808.0
2396630.0,165854208.0,159367840.0
2396630.0,165801824.0,159350912.0
2391794.75,165794576.0,159343664.0
2395824.25,165732528.0,159345280.0
2395824.25,165697872.0,159317072.0
2394212.5,165691424.0,159281616.0
2390183.25,165664032.0,159334000.0
2395018.25,165647920.0,159321104.0
2392600.75,165651136.0,159275968.0
2395824.25,165647104.0,159338832.0
2393406.5,165676928.0,159348496.0
2393406.5,165615680.0,159334000.0
2395824.25,165646304.0,159354944.0
2402271.0,165637440.0,159355744.0
2397436.0,165636624.0,159365424.0
2399047.5,165635824.0,159384768.0
2392600.75,165660000.0,159321104.0
2397436.0,165668864.0,159389600.0
2399853.5,165626160.0,159328352.0
2394212.5,165648720.0,159329152.0
2402271.0,165610848.0,159352528.0
2395018.25,165643888.0,159323520.0
2405494.5,165608432.0,159382352.0
2394212.5,165656784.0,159319488.0
2399853.5,165661616.0,159302560.0
2393406.5,165630992.0,159313840.0
2400659.25,165640656.0,159328352.0
2398241.75,165653552.0,159360592.0
2393406.5,165726080.0,159356560.0
2398241.75,165680960.0,159333184.0
2399047.5,165692240.0,159383952.0
2399047.5,165737360.0,159362192.0
2401465.25,165766368.0,159391216.0
2396630.0,165723664.0,159434720.0
2399047.5,165762352.0,159421024.0
2395018.25,165742192.0,159383952.0
2401465.25,165765568.0,159433920.0
2399853.5,165785712.0,159454864.0
2399853.5,165839712.0,159438752.0
2403077.0,165851792.0,159449232.0
2403077.0,165866304.0,159485488.0
2403882.75,165890480.0,159473408.0
2403882.75,165870336.0,159454064.0
2404688.75,165907392.0,159453264.0
2408718.0,165884032.0,159537872.0
2408718.0,165943664.0,159513696.0
2400659.25,165898528.0,159462128.0
2403882.75,165880800.0,159406528.0
2404688.75,165801024.0,159385568.0
2397436.0,165745424.0,159428272.0
2395824.25,165669664.0,159401680.0
2395824.25,165690624.0,159363808.0
2399853.5,165610848.0,159401680.0
2399047.5,165647920.0,159325936.0
2400659.25,165623744.0,159392816.0
2402271.0,165602784.0,159375904.0
2396630.0,165580224.0,159359776.0
2402271.0,165595536.0,159383952.0
2401465.25,165592304.0,159381536.0
2401465.25,165623744.0,159400880.0
2403882.75,165586672.0,159335600.0
2415164.75,165598752.0,159440368.0
2403077.0,165601168.0,159434720.0
2406300.25,165565712.0,159387184.0
2403882.75,165622928.0,159396048.0
2404688.75,165617296.0,159404096.0
2402271.0,165622928.0,159350912.0
2401465.25,165647104.0,159383152.0
2403882.75,165643888.0,159405712.0
2400659.25,165593920.0,159338832.0
2403882.75,165589088.0,159412160.0
2402271.0,165609232.0,159411360.0
2403077.0,165579408.0,159364608.0
2405494.5,165596336.0,159429088.0
2403077.0,165630992.0,159323520.0
2399047.5,165606000.0,159331568.0
2403882.75,165609232.0,159420224.0
2406300.25,165657584.0,159436336.0
2407912.0,165686592.0,159429888.0
2403882.75,165691424.0,159533040.0
2407106.25,165704320.0,159572528.0
2407912.0,165733328.0,159506448.0
2405494.5,165755088.0,159539488.0
2404688.75,165764768.0,159483072.0
2415970.75,165734944.0,159508064.0
2402271.0,165710768.0,159458096.0
2408718.0,165784096.0,159507248.0
2407106.25,165774432.0,159505648.0
2414359.0,165817952.0,159513696.0
2411941.5,165803440.0,159495168.0
2415164.75,165826816.0,159462128.0
2413553.0,165822784.0,159500800.0
2406300.25,165792960.0,159494352.0
2407912.0,165803440.0,159400880.0
2404688.75,165743808.0,159438752.0
2409523.75,165705936.0,159399264.0
2404688.75,165610848.0,159369456.0
2403077.0,165597136.0,159345280.0
2399047.5,165558464.0,159289664.0
2403882.75,165560880.0,159310624.0
2399047.5,165506880.0,159367040.0
2399853.5,165485936.0,159303376.0
2395018.25,165476256.0,159315456.0
2403077.0,165455312.0,159315456.0
2399047.5,165475456.0,159324320.0
2402271.0,165462560.0,159343664.0
2398241.75,165442416.0,159316256.0
2398241.75,165437584.0,159349312.0
2403077.0,165435968.0,159358176.0
2400659.25,165461760.0,159371872.0
2401465.25,165523008.0,159370256.0
2399853.5,165532672.0,159388784.0
2403077.0,165473840.0,159374288.0
2396630.0,165486736.0,159388784.0
2398241.75,165511728.0,159371056.0
2397436.0,165521392.0,159392016.0
2401465.25,165510112.0,159429888.0
2400659.25,165523008.0,159420224.0
2400659.25,165539920.0,159373472.0
2397436.0,165502864.0,159371056.0
2399853.5,165497216.0,159370256.0
2407106.25,165519776.0,159414576.0
2400659.25,165520592.0,159324320.0
2401465.25,165540736.0,159364608.0
2397436.0,165569744.0,159356560.0
2399853.5,165544768.0,159342864.0
2402271.0,165518176.0,159313040.0
2399853.5,165517360.0,159298528.0
2399047.5,165527040.0,159343664.0
2398241.75,165592304.0,159398464.0
2399853.5,165609232.0,159350912.0
2403882.75,165634208.0,159434720.0
2400659.25,165652752.0,159413776.0
2401465.25,165685792.0,159446816.0
2403882.75,165695456.0,159413776.0
2405494.5,165719632.0,159482272.0
2407106.25,165731728.0,159487920.0
2404688.75,165755088.0,159512080.0
2403077.0,165769600.0,159498384.0
2403882.75,165780080.0,159471792.0
2404688.75,165730112.0,159490336.0
2407912.0,165715600.0,159475824.0
2404688.75,165676112.0,159433920.0
2395824.25,165619712.0,159409744.0
2399047.5,165535088.0,159397648.0
2395824.25,165548784.0,159404096.0
2396630.0,165508496.0,159399264.0
2398241.75,165501248.0,159387184.0
2399047.5,165440800.0,159391216.0
2397436.0,165465792.0,159400080.0
2399047.5,165444832.0,159372672.0
2396630.0,165489968.0,159346080.0
2395824.25,165415024.0,159391216.0
2396630.0,165433552.0,159383152.0
2396630.0,165423072.0,159375088.0
2398241.75,165424688.0,159412160.0
2392600.75,165456112.0,159414576.0
2395824.25,165467392.0,159414576.0
2397436.0,165456928.0,159322704.0
2392600.75,165469824.0,159416992.0
2399853.5,165466592.0,159416992.0
2392600.75,165456928.0,159407328.0
2394212.5,165497216.0,159371872.0
2390989.0,165460144.0,159378320.0
2399853.5,165467392.0,159386368.0
2399047.5,165464176.0,159364608.0
2396630.0,165468208.0,159379920.0
2396630.0,165494800.0,159412960.0
2397436.0,165472240.0,159425056.0
2396630.0,165502048.0,159414576.0
2397436.0,165495600.0,159387184.0
2398241.75,165500432.0,159414576.0
2400659.25,165532672.0,159459712.0
2399047.5,165505280.0,159437952.0
2398241.75,165550400.0,159430688.0
2394212.5,165575392.0,159473408.0
2396630.0,165606816.0,159487104.0
2399853.5,165603584.0,159429088.0
2399853.5,165587472.0,159455680.0
2395824.25,165616480.0,159528208.0
2399047.5,165664032.0,159541104.0
2403882.75,165665648.0,159527392.0
2397436.0,165651136.0,159476624.0
2403882.75,165676112.0,159545136.0
2399853.5,165718832.0,159573328.0
2403077.0,165722048.0,159568496.0
2403882.75,165714800.0,159429888.0
2399047.5,165693840.0,159500000.0
2401465.25,165655968.0,159506448.0
2398241.75,165618896.0,159407328.0
2397436.0,165572160.0,159412160.0
2395824.25,165498016.0,159363008.0
2392600.75,165512528.0,159389600.0
2395824.25,165471424.0,159400880.0
2394212.5,165439200.0,159407328.0
2398241.75,165390848.0,159346880.0
2392600.75,165393264.0,159342048.0
2388571.5,165429520.0,159367840.0
2391794.75,165376336.0,159358176.0
2386153.75,165403744.0,159366224.0
2395018.25,165373120.0,159364608.0
2390989.0,165391648.0,159370256.0
2389377.25,165398896.0,159372672.0
2394212.5,165405344.0,159383152.0
2391794.75,165389232.0,159386368.0
2392600.75,165433552.0,159421824.0
2397436.0,165409376.0,159388784.0
2389377.25,165431136.0,159377504.0
2395824.25,165411792.0,159416192.0
2396630.0,165402128.0,159396048.0
2395824.25,165418240.0,159366224.0
2398241.75,165402928.0,159351728.0
2393406.5,165428720.0,159371872.0
2397436.0,165402928.0,159398464.0
2397436.0,165447248.0,159353328.0
2395018.25,165424688.0,159413776.0
2395824.25,165434352.0,159358176.0
2399047.5,165427104.0,159416192.0
2399047.5,165461760.0,159429888.0
2398241.75,165487552.0,159466160.0
2396630.0,165470624.0,159397648.0
2397436.0,165502864.0,159454864.0
2393406.5,165471424.0,159421024.0
2400659.25,165560080.0,159445200.0
2395018.25,165547984.0,159398464.0
2396630.0,165550400.0,159383952.0
2395018.25,165589888.0,159402496.0
2394212.5,165576192.0,159467760.0
2391794.75,165552816.0,159389600.0
2401465.25,165551216.0,159446816.0
2400659.25,165571360.0,159422640.0
2401465.25,165621312.0,159408944.0
2399853.5,165603584.0,159417808.0
2399853.5,165619712.0,159407328.0
2391794.75,165642272.0,159342048.0
2392600.75,165593120.0,159380736.0
2392600.75,165534288.0,159349312.0
2391794.75,165494800.0,159285648.0
2391794.75,165444832.0,159292080.0
2383736.25,165394864.0,159230032.0
2390989.0,165341680.0,159285648.0
2389377.25,165380368.0,159325136.0
2391794.75,165373920.0,159317872.0
2386153.75,165389232.0,159267104.0
2390183.25,165346528.0,159367040.0
2385348.0,165348128.0,159278384.0
2386959.75,165358608.0,159309008.0
2388571.5,165353776.0,159314656.0
2387765.5,165345712.0,159295312.0
2387765.5,165386000.0,159385568.0
2392600.75,165362640.0,159350912.0
2386153.75,165383584.0,159287248.0
2390989.0,165378752.0,159338016.0
2389377.25,165411792.0,159360592.0
2393406.5,165402928.0,159360592.0
2391794.75,165386000.0,159364608.0
2393406.5,165375536.0,159338832.0
2392600.75,165434352.0,159350112.0
2390989.0,165386000.0,159314656.0
2388571.5,165359408.0,159349312.0
2395824.25,165400512.0,159380736.0
2394212.5,165415824.0,159306592.0
2397436.0,165408576.0,159314656.0
2393406.5,165365056.0,159321104.0
2390989.0,165407760.0,159292896.0
2397436.0,165432752.0,159343664.0
2391794.75,165384400.0,159295312.0
2394212.5,165443216.0,159350112.0
2397436.0,165447248.0,159321904.0
2391794.75,165485136.0,159361392.0
2388571.5,165512528.0,159345280.0
2392600.75,165464976.0,159309824.0
2393406.5,165496416.0,159383152.0
2397436.0,165521392.0,159371056.0
2391794.75,165556048.0,159371872.0
2396630.0,165536704.0,159385568.0
2399047.5,165567328.0,159408128.0
2395824.25,165590688.0,159421024.0
2403882.75,165656784.0,159389600.0
2392600.75,165577808.0,159386368.0
2401465.25,165589088.0,159376704.0
2394212.5,165506080.0,159315456.0
2399047.5,165386816.0,159276784.0
2393406.5,165439200.0,159259040.0
2403077.0,165352160.0,159305792.0
2392600.75,165328784.0,159259856.0
2388571.5,165365856.0,159204256.0
2387765.5,165315904.0,159224400.0
2385348.0,165329600.0,159307392.0
2392600.75,165307040.0,159259040.0
2391794.75,165308640.0,159253408.0
2391794.75,165307040.0,159274352.0
2382930.5,165330400.0,159258240.0
2394212.5,165338464.0,159300960.0
2390989.0,165303008.0,159222784.0
2385348.0,165286080.0,159274352.0
2389377.25,165332016.0,159294512.0
2385348.0,165329600.0,159244544.0
2394212.5,165426304.0,159263072.0
2388571.5,165344912.0,159296928.0
2395018.25,165344096.0,159256624.0
2393406.5,165346528.0,159322704.0
2392600.75,165319920.0,159269520.0
2396630.0,165329600.0,159262272.0
2400659.25,165314288.0,159259040.0
2394212.5,165328784.0,159288864.0
2389377.25,165325568.0,159295312.0
2395018.25,165358608.0,159270336.0
2394212.5,165383584.0,159315456.0
2394212.5,165356992.0,159278384.0
2395824.25,165344096.0,159321104.0
2394212.5,165391648.0,159309008.0
2392600.75,165415024.0,159317072.0
2395824.25,165427104.0,159323520.0
2399047.5,165425488.0,159316256.0
2398241.75,165448864.0,159324320.0
2390989.0,165474656.0,159337216.0
2396630.0,165448864.0,159335600.0
2399047.5,165491568.0,159333184.0
2400659.25,165495600.0,159366224.0
2395018.25,165528640.0,159325936.0
2406300.25,165527840.0,159401680.0
2399047.5,165546368.0,159389600.0
2406300.25,165578608.0,159408944.0
2406300.25,165591504.0,159382352.0
2402271.0,165520592.0,159401680.0
2407106.25,165504464.0,159344464.0
2400659.25,165424688.0,159370256.0
2395824.25,165442416.0,159304976.0
2394212.5,165400512.0,159311424.0
2394212.5,165349744.0,159288064.0
2395824.25,165365856.0,159295312.0
2396630.0,165379568.0,159293696.0
2392600.75,165356992.0,159292080.0
2396630.0,165322352.0,159283216.0
2393406.5,165275600.0,159291280.0
2395824.25,165294944.0,159307392.0
2396630.0,165323152.0,159333184.0
2390183.25,165286080.0,159309008.0
2396630.0,165297360.0,159330768.0
2398241.75,165281248.0,159267104.0
2390989.0,165277216.0,159300144.0
2393406.5,165318320.0,159317872.0
2394212.5,165327984.0,159372672.0
2400659.25,165328784.0,159320288.0
2400659.25,165373120.0,159334000.0
2399047.5,165357808.0,159381536.0
2397436.0,165362640.0,159292896.0
2395018.25,165328784.0,159297728.0
2403077.0,165327984.0,159344464.0
2397436.0,165374720.0,159345280.0
2402271.0,165356192.0,159443584.0
2399853.5,165387616.0,159342864.0
2400659.25,165386816.0,159350112.0
2401465.25,165398896.0,159347696.0
2399853.5,165370688.0,159379920.0
2401465.25,165444832.0,159401680.0
2395824.25,165400512.0,159406528.0
2401465.25,165453696.0,159416192.0
2399047.5,165468208.0,159441168.0
2403882.75,165472240.0,159397648.0
2399047.5,165523808.0,159446000.0
2401465.25,165443216.0,159419408.0
2404688.75,165493184.0,159416992.0
2407106.25,165543152.0,159484688.0
2407912.0,165571360.0,159489520.0
2406300.25,165579408.0,159455680.0
2403882.75,165595536.0,159470176.0
2404688.75,165610032.0,159480656.0
2405494.5,165626960.0,159491936.0
2412747.25,165648720.0,159483072.0
2407912.0,165664032.0,159491136.0
2408718.0,165576992.0,159479040.0
2404688.75,165568944.0,159446000.0
2403077.0,165551216.0,159454864.0
2398241.75,165503664.0,159447616.0
2396630.0,165445648.0,159383952.0
2402271.0,165438384.0,159395232.0
2395824.25,165452896.0,159439568.0
2394212.5,165417440.0,159369456.0
2392600.75,165437584.0,159366224.0
2397436.0,165434352.0,159363808.0
2393406.5,165409376.0,159403296.0
2401465.25,165427104.0,159479040.0
2395018.25,165348944.0,159420224.0
2387765.5,165411792.0,159444400.0
2393406.5,165394064.0,159414576.0
2392600.75,165410992.0,159462928.0
2395824.25,165442416.0,159436336.0
2399853.5,165443216.0,159484688.0
2392600.75,165410176.0,159421024.0
2397436.0,165435168.0,159458896.0
2395018.25,165472240.0,159450848.0
2400659.25,165493184.0,159421824.0
2399047.5,165510912.0,159458096.0
2397436.0,165471424.0,159479856.0
2394212.5,165471424.0,159425856.0
2399047.5,165476256.0,159458896.0
2394212.5,165485936.0,159470992.0
2390183.25,165485136.0,159461312.0
2398241.75,165553632.0,159548352.0
2392600.75,165571360.0,159573328.0
2393406.5,165567328.0,159591056.0
2390183.25,165594720.0,159591056.0
2392600.75,165587472.0,159602352.0
2397436.0,165625344.0,159497584.0
2391794.75,165603584.0,159522560.0
2391794.75,165618896.0,159549968.0
2395018.25,165636624.0,159563664.0
2386959.75,165651936.0,159545136.0
2389377.25,165639040.0,159583008.0
2393406.5,165652752.0,159524176.0
2399853.5,165682560.0,159578176.0
2398241.75,165678528.0,159567696.0
2395824.25,165762352.0,159595904.0
2395018.25,165750256.0,159555600.0
2402271.0,165755904.0,159603152.0
2390989.0,165786528.0,159563664.0
2401465.25,165807472.0,159636992.0
2394212.5,165843744.0,159625712.0
2394212.5,165799408.0,159588640.0
2400659.25,165787328.0,159629744.0
2390989.0,165768784.0,159584608.0
2393406.5,165733328.0,159611216.0
2390989.0,165696256.0,159584608.0
2394212.5,165644688.0,159578976.0
2381318.75,165676112.0,159566080.0
2397436.0,165647104.0,159550768.0
2384542.0,165586672.0,159527392.0
2388571.5,165614064.0,159515312.0
2391794.75,165636624.0,159538688.0
2388571.5,165613264.0,159567696.0
2389377.25,165607616.0,159535456.0
2395018.25,165617296.0,159545136.0
2390989.0,165595536.0,159541104.0
2394212.5,165587472.0,159503216.0
2397436.0,165604400.0,159555600.0
2396630.0,165639040.0,159585424.0
2396630.0,165623744.0,159554800.0
2396630.0,165660800.0,159545136.0
2394212.5,165655968.0,159558016.0
2393406.5,165662416.0,159576560.0
2394212.5,165702704.0,159512896.0
2396630.0,165688208.0,159544320.0
2395018.25,165643072.0,159563664.0
2391794.75,165670480.0,159586224.0
2399047.5,165685792.0,159563664.0
2397436.0,165689824.0,159554000.0
2400659.25,165651136.0,159502416.0
2399047.5,165682560.0,159553184.0
2398241.75,165659200.0,159528208.0
2398241.75,165703520.0,159551568.0
2399047.5,165718832.0,159537872.0
2394212.5,165704320.0,159529008.0
2397436.0,165763152.0,159571728.0
2400659.25,165732528.0,159508864.0
2398241.75,165700288.0,159523376.0
2399047.5,165704320.0,159579776.0
2399853.5,165732528.0,159538688.0
2401465.25,165767184.0,159574144.0
2399853.5,165758320.0,159574144.0
2396630.0,165802640.0,159595904.0
2399853.5,165825200.0,159586224.0
2402271.0,165850176.0,159568496.0
2404688.75,165868720.0,159617648.0
2408718.0,165864688.0,159626528.0
2403882.75,165891280.0,159616848.0
2406300.25,165909824.0,159624096.0
2400659.25,165930768.0,159636192.0
2403077.0,165857440.0,159579776.0
2399047.5,165830032.0,159552384.0
2400659.25,165805856.0,159530624.0
2395018.25,165791360.0,159558016.0
2395018.25,165722048.0,159487920.0
2394212.5,165731728.0,159447616.0
2392600.75,165684176.0,159469376.0
2395018.25,165662416.0,159506448.0
2397436.0,165652752.0,159463744.0
2391794.75,165667248.0,159491936.0
2390989.0,165684176.0,159495968.0
2393406.5,165630176.0,159453264.0
2390183.25,165656784.0,159444400.0
2395018.25,165614864.0,159435536.0
2392600.75,165620512.0,159448432.0
2390183.25,165595536.0,159427472.0
2390183.25,165621312.0,159468576.0
2392600.75,165640656.0,159462128.0
2392600.75,165647104.0,159429888.0
2389377.25,165643072.0,159416192.0
2394212.5,165667248.0,159450848.0
2391794.75,165653552.0,159416192.0
2395018.25,165676928.0,159504832.0
2393406.5,165601984.0,159450032.0
2393406.5,165701104.0,159491936.0
2390989.0,165664032.0,159466160.0
2390989.0,165695456.0,159441168.0
2390183.25,165640656.0,159415392.0
2384542.0,165704320.0,159443584.0
2390989.0,165667248.0,159416992.0
2399047.5,165693040.0,159428272.0
2391794.75,165698688.0,159466160.0
2399047.5,165680144.0,159468576.0
2389377.25,165752672.0,159444400.0
2395824.25,165727696.0,159457296.0
2392600.75,165692240.0,159482272.0
2395824.25,165760736.0,159494352.0
2401465.25,165747840.0,159474208.0
2397436.0,165776048.0,159448432.0
2398241.75,165820368.0,159426672.0
2395824.25,165802640.0,159522560.0
2395824.25,165809088.0,159455680.0
2396630.0,165814720.0,159480656.0
2400659.25,165843744.0,159493552.0
2401465.25,165842128.0,159515312.0
2394212.5,165859040.0,159485488.0
2401465.25,165874352.0,159549152.0
2393406.5,165897728.0,159523376.0
2401465.25,165937216.0,159554000.0
2399047.5,165938832.0,159505648.0
2400659.25,165879200.0,159458096.0
2396630.0,165863888.0,159501616.0
2398241.75,165820368.0,159526592.0
2395018.25,165767984.0,159471792.0
2389377.25,165722864.0,159446000.0
2396630.0,165693040.0,159421824.0
2391794.75,165693840.0,159440368.0
2392600.75,165690624.0,159473408.0
2388571.5,165686592.0,159449232.0
2389377.25,165651136.0,159413776.0
2400659.25,165654352.0,159425056.0
2387765.5,165669664.0,159422640.0
2383736.25,165594720.0,159376704.0
2388571.5,165653552.0,159399264.0
2393406.5,165593120.0,159392016.0
2392600.75,165630176.0,159426672.0
2390989.0,165635824.0,159435536.0
2395824.25,165635024.0,159446000.0
2383736.25,165633408.0,159430688.0
2395824.25,165639856.0,159433920.0
2389377.25,165657584.0,159371056.0
2385348.0,165681760.0,159389600.0
2389377.25,165634208.0,159421024.0
2391794.75,165635024.0,159425056.0
2387765.5,165664032.0,159402496.0
2393406.5,165647920.0,159438752.0
2390183.25,165648720.0,159423440.0
2392600.75,165641472.0,159405712.0
2396630.0,165680960.0,159422640.0
2386959.75,165639856.0,159389600.0
2393406.5,165622928.0,159414576.0
2392600.75,165681760.0,159398464.0
2394212.5,165663216.0,159358176.0
2386153.75,165724464.0,159409744.0
2392600.75,165705136.0,159423440.0
2388571.5,165668064.0,159372672.0
2389377.25,165702704.0,159407328.0
2387765.5,165705136.0,159369456.0
2387765.5,165759920.0,159397648.0
2390183.25,165754288.0,159425056.0
2387765.5,165737360.0,159441984.0
2390183.25,165780880.0,159434720.0
2392600.75,165812304.0,159480656.0
2387765.5,165784912.0,159501616.0
2392600.75,165847760.0,159458896.0
2391794.75,165829232.0,159505648.0
2393406.5,165876784.0,159537072.0
2394212.5,165857440.0,159526592.0
2402271.0,165903376.0,159489520.0
2402271.0,165894512.0,159545136.0
2394212.5,165878384.0,159485488.0
2392600.75,165867104.0,159466960.0
2395018.25,165818752.0,159433120.0
2390183.25,165755904.0,159423440.0
2388571.5,165737360.0,159381536.0
2388571.5,165702704.0,159373472.0
2384542.0,165651936.0,159330768.0
2386153.75,165622128.0,159368640.0
2384542.0,165598752.0,159332384.0
2385348.0,165594720.0,159300960.0
2383736.25,165614864.0,159307392.0
2384542.0,165509312.0,159304176.0
2384542.0,165539120.0,159362192.0
2389377.25,165506880.0,159359776.0
2382124.5,165572960.0,159288064.0
2386959.75,165523808.0,159346080.0
2374871.75,165559264.0,159361392.0
2384542.0,165572960.0,159329968.0
2384542.0,165552816.0,159315456.0
2390183.25,165557648.0,159294512.0
2387765.5,165556048.0,159294512.0
2390183.25,165580224.0,159297728.0
2386959.75,165564096.0,159352528.0
2390183.25,165568944.0,159342864.0
2388571.5,165546368.0,159352528.0
2388571.5,165521392.0,159336416.0
2390989.0,165551216.0,159300960.0
2390183.25,165567328.0,159276784.0
2388571.5,165580224.0,159337216.0
2389377.25,165561680.0,159313840.0
2390989.0,165582640.0,159360592.0
2386153.75,165580224.0,159335600.0
2391794.75,165534288.0,159316256.0
2390183.25,165596336.0,159315456.0
2390183.25,165588272.0,159371872.0
2387765.5,165583440.0,159369456.0
2388571.5,165629376.0,159334000.0
2382124.5,165633408.0,159346080.0
2388571.5,165648720.0,159359776.0
2384542.0,165635024.0,159382352.0
2391794.75,165693040.0,159342048.0
2391794.75,165694656.0,159400080.0
2394212.5,165681760.0,159367040.0
2393406.5,165662416.0,159316256.0
2391794.75,165738976.0,159418608.0
2390989.0,165720432.0,159452448.0
2395824.25,165713184.0,159395232.0
2394212.5,165741392.0,159434720.0
2395824.25,165760736.0,159446000.0
2404688.75,165744608.0,159433120.0
2396630.0,165797808.0,159392016.0
2394212.5,165784912.0,159410544.0
2390183.25,165749456.0,159333184.0
2392600.75,165645488.0,159325136.0
2388571.5,165613264.0,159288064.0
2382124.5,165586672.0,159296112.0
2388571.5,165533472.0,159258240.0
2374066.0,165523808.0,159254208.0
2378901.0,165459344.0,159213120.0
2379707.0,165481104.0,159247760.0
2382930.5,165468208.0,159259856.0
2373260.0,165434352.0,159232448.0
2381318.75,165444032.0,159248576.0
2378095.25,165385200.0,159255824.0
2376483.5,165393264.0,159203440.0
2381318.75,165411792.0,159256624.0
2378901.0,165410992.0,159183296.0
2382124.5,165387616.0,159185712.0
2386153.75,165400512.0,159211504.0
2375677.75,165378752.0,159258240.0
2380512.75,165438384.0,159175232.0
2380512.75,165378752.0,159256624.0
2382930.5,165421472.0,159212304.0
2378095.25,165411792.0,159227616.0
2380512.75,165450480.0,159217952.0
2375677.75,165373920.0,159226816.0
2379707.0,165398096.0,159201824.0
2374871.75,165377952.0,159204256.0
2372454.25,165381984.0,159189744.0
2373260.0,165394064.0,159125280.0
2371648.25,165411792.0,159224400.0
2376483.5,165382784.0,159137360.0
2375677.75,165402928.0,159244544.0
2370842.5,165425488.0,159191360.0
2375677.75,165411792.0,159173632.0
2372454.25,165420656.0,159223584.0
2377289.5,165452896.0,159219568.0
2378901.0,165435968.0,159292896.0
2374066.0,165450480.0,159235680.0
2382124.5,165471424.0,159276784.0
2378901.0,165494000.0,159274352.0
2386959.75,165505280.0,159271136.0
2378095.25,165516560.0,159284832.0
2379707.0,165539920.0,159300960.0
2380512.75,165506880.0,159304976.0
2383736.25,165604400.0,159323520.0
2378095.25,165541536.0,159322704.0
2382124.5,165570544.0,159309008.0
2380512.75,165599568.0,159342864.0
2382124.5,165601984.0,159301760.0
2381318.75,165578608.0,159317072.0
2374871.75,165534288.0,159324320.0
2371648.25,165474656.0,159235680.0
2374066.0,165395680.0,159204256.0
2369230.75,165371504.0,159206672.0
2370842.5,165361824.0,159154288.0
2370842.5,165287696.0,159172816.0
2367619.0,165265136.0,159176048.0
2368425.0,165211936.0,159179264.0
2366813.25,165254656.0,159172016.0
2370842.5,165236928.0,159121248.0
2372454.25,165229664.0,159096256.0
2367619.0,165189376.0,159126880.0
2369230.75,165210336.0,159166368.0
2364395.5,165186160.0,159180080.0
2366007.25,165029008.0,159089008.0
2368425.0,165029008.0,159105936.0
2363589.75,165000800.0,159147840.0
2368425.0,164984688.0,159130112.0
2368425.0,164978240.0,159117216.0
2366007.25,165026592.0,159143808.0
2363589.75,165033840.0,159097872.0
2369230.75,165003216.0,159070480.0
2371648.25,165034656.0,159117216.0
2368425.0,164948432.0,159090624.0
2371648.25,165000800.0,159147840.0
2361978.0,164989520.0,159110768.0
2369230.75,164987920.0,159129312.0
2361978.0,165024176.0,159155904.0
2369230.75,164989520.0,159152672.0
2366813.25,165013696.0,159143808.0
2368425.0,165020960.0,159169600.0
2371648.25,165060432.0,159201824.0
2371648.25,165020144.0,159165568.0
2364395.5,165071728.0,159130912.0
2372454.25,165099120.0,159212304.0
2370036.75,165097504.0,159238896.0
2378095.25,165140224.0,159273552.0
2374871.75,165125712.0,159271136.0
2374871.75,165113632.0,159209088.0
2368425.0,165182928.0,159228432.0
2374066.0,165199040.0,159229232.0
2376483.5,165174064.0,159272752.0
2376483.5,165199856.0,159240512.0
2374871.75,165253040.0,159277584.0
2374066.0,165189376.0,159274352.0
2371648.25,165227248.0,159255024.0
2377289.5,165215168.0,159254208.0
2370036.75,165214352.0,159263072.0
2366007.25,165157136.0,159196192.0
2371648.25,165124912.0,159211504.0
2361172.25,165044320.0,159185712.0
2366813.25,164965344.0,159147040.0
2369230.75,164960512.0,159161536.0
2363589.75,164909744.0,159097072.0
2366813.25,164892816.0,159135744.0
2360366.25,164899264.0,159072080.0
2362784.0,164851728.0,159139776.0
2358754.5,164838832.0,159149456.0
2364395.5,164821904.0,159142192.0
2366813.25,164811424.0,159061616.0
2359560.5,164793696.0,159120432.0
2362784.0,164820288.0,159118832.0
2360366.25,164784032.0,159126080.0
2361978.0,164829968.0,159155088.0
2361978.0,164842048.0,159163152.0
2367619.0,164826736.0,159105936.0
2361978.0,164799344.0,159101104.0
2368425.0,164885568.0,159165568.0
2366813.25,164854144.0,159159120.0
2356337.0,164839632.0,159104320.0
2363589.75,164867040.0,159185712.0
2364395.5,164818688.0,159135744.0
2363589.75,164808208.0,159126880.0
2360366.25,164856560.0,159128496.0
2360366.25,164854144.0,159178464.0
2363589.75,164839632.0,159118016.0
2367619.0,164809824.0,159135744.0
2366813.25,164875904.0,159153472.0
2368425.0,164850112.0,159132528.0
2367619.0,164850912.0,159177648.0
2370036.75,164868640.0,159172016.0
2365201.5,164897648.0,159141392.0
2367619.0,164888784.0,159179264.0
2370036.75,164885568.0,159217952.0
2363589.75,164962928.0,159214720.0
2362784.0,164964544.0,159205056.0
2366007.25,164892816.0,159143008.0
2365201.5,164949232.0,159211504.0
2370036.75,165024976.0,159236480.0
2370842.5,165034656.0,159228432.0
2368425.0,165029008.0,159253408.0
2366813.25,165076560.0,159286448.0
2375677.75,165077360.0,159275168.0
2370842.5,165099120.0,159284832.0
2367619.0,165079776.0,159244544.0
2375677.75,165059632.0,159302560.0
2370842.5,165020144.0,159253408.0
2366007.25,164938752.0,159202640.0
2369230.75,164926672.0,159138176.0
2364395.5,164865424.0,159184912.0
2373260.0,164818688.0,159156704.0
2362784.0,164775168.0,159126880.0
2378901.0,164765488.0,159149456.0
2365201.5,164792896.0,159131728.0
2362784.0,164773552.0,159130912.0
2362784.0,164738096.0,159170400.0
2361172.25,164759040.0,159153472.0
2363589.75,164759856.0,159190544.0
2364395.5,164715536.0,159161536.0
2364395.5,164714720.0,159190544.0
2361978.0,164692160.0,159163152.0
2370036.75,164704256.0,159191360.0
2370842.5,164757440.0,159242128.0
2360366.25,164724400.0,159155904.0
2364395.5,164778384.0,159201824.0
2362784.0,164792080.0,159149456.0
2361978.0,164714720.0,159194576.0
2361978.0,164776784.0,159168784.0
2366813.25,164779200.0,159165568.0
2364395.5,164756624.0,159184096.0
2366813.25,164756624.0,159189744.0
2369230.75,164727616.0,159172816.0
2361172.25,164795312.0,159129312.0
2369230.75,164752608.0,159196992.0
2370036.75,164762272.0,159189744.0
2365201.5,164776784.0,159222784.0
2365201.5,164797728.0,159172016.0
2370036.75,164832384.0,159195392.0
2366007.25,164808208.0,159263072.0
2366813.25,164827552.0,159262272.0
2368425.0,164875088.0,159234064.0
2372454.25,164867840.0,159295312.0
2369230.75,164846080.0,159293696.0
2369230.75,164844464.0,159238096.0
2368425.0,164854944.0,159292080.0
2366813.25,164932304.0,159245344.0
2372454.25,165012080.0,159296112.0
2371648.25,164946000.0,159329152.0
2370036.75,164959712.0,159328352.0
2375677.75,164986304.0,159277584.0
2370842.5,164951648.0,159242128.0
2369230.75,164916992.0,159297728.0
2366007.25,164795312.0,159236480.0
2363589.75,164794512.0,159180080.0
2366007.25,164734064.0,159207472.0
2364395.5,164697808.0,159238096.0
2359560.5,164685712.0,159212304.0
2363589.75,164671216.0,159209088.0
2365201.5,164628496.0,159118016.0
2362784.0,164679264.0,159190544.0
2358754.5,164657504.0,159163152.0
2362784.0,164588208.0,159151872.0
2361172.25,164672816.0,159152672.0
2360366.25,164601104.0,159231648.0
2361172.25,164621248.0,159167184.0
2361172.25,164604320.0,159181680.0
2357142.75,164629312.0,159201824.0
2359560.5,164618016.0,159167984.0
2361978.0,164590624.0,159206672.0
2358754.5,164612384.0,159207472.0
2357948.75,164664768.0,159201024.0
2357948.75,164643008.0,159192160.0
2361978.0,164611568.0,159225200.0
2362784.0,164601904.0,159202640.0
2359560.5,164603520.0,159209888.0
2356337.0,164646224.0,159206672.0
2361172.25,164620432.0,159159920.0
2362784.0,164652672.0,159234864.0
2361978.0,164619632.0,159134944.0
2361978.0,164689744.0,159198608.0
2361172.25,164701024.0,159238896.0
2368425.0,164721984.0,159270336.0
2366007.25,164696192.0,159261472.0
2366813.25,164722784.0,159258240.0
2361978.0,164738896.0,159321904.0
2364395.5,164775168.0,159308208.0
2366007.25,164767920.0,159316256.0
2365201.5,164790480.0,159292080.0
2365201.5,164806592.0,159306592.0
2365201.5,164868640.0,159297728.0
2360366.25,164833184.0,159345280.0
2371648.25,164856560.0,159370256.0
2369230.75,164863808.0,159341248.0
2367619.0,164926672.0,159363008.0
2366813.25,164789664.0,159284832.0
2368425.0,164808208.0,159283216.0
2359560.5,164758240.0,159221984.0
2363589.75,164647840.0,159288864.0
2362784.0,164704256.0,159259040.0
2362784.0,164655088.0,159231648.0
2361172.25,164609152.0,159208272.0
2359560.5,164605136.0,159198608.0
2362784.0,164609152.0,159175232.0
2358754.5,164555968.0,159231648.0
2358754.5,164553552.0,159181680.0
2359560.5,164576928.0,159200224.0
2356337.0,164472960.0,159221984.0
2358754.5,164506000.0,159184912.0
2356337.0,164540656.0,159210688.0
2357142.75,164497952.0,159204256.0
2361172.25,164504400.0,159168784.0
2351501.75,164514064.0,159236480.0
2359560.5,164538240.0,159260656.0
2347472.5,164537440.0,159196992.0
2361978.0,164555968.0,159253408.0
2359560.5,164514064.0,159198608.0
2358754.5,164572896.0,159232448.0
2361172.25,164568064.0,159251792.0
2357948.75,164530992.0,159172816.0
2354725.25,164602704.0,159237296.0
2361978.0,164534208.0,159247760.0
2363589.75,164564832.0,159213920.0
2361978.0,164578528.0,159268720.0
2367619.0,164533408.0,159222784.0
2361978.0,164611568.0,159267920.0
2359560.5,164606736.0,159237296.0
2361172.25,164594656.0,159293696.0
2361172.25,164630912.0,159292896.0
2364395.5,164615600.0,159250176.0
2361978.0,164665568.0,159300960.0
2366007.25,164710688.0,159327552.0
2358754.5,164671216.0,159242128.0
2361978.0,164743744.0,159258240.0
2360366.25,164702640.0,159265488.0
2361172.25,164713120.0,159298528.0
2364395.5,164762272.0,159321104.0
2364395.5,164805792.0,159289664.0
2366007.25,164778384.0,159299344.0
2363589.75,164763888.0,159313040.0
2363589.75,164712304.0,159290480.0
2360366.25,164670400.0,159282416.0
2359560.5,164601904.0,159221168.0
2361978.0,164607552.0,159235680.0
2352307.75,164547104.0,159213920.0
2357948.75,164524544.0,159249376.0
2357142.75,164522928.0,159202640.0
2363589.75,164485056.0,159196992.0
2357142.75,164501984.0,159185712.0
2359560.5,164467328.0,159184912.0
2352307.75,164487472.0,159167984.0
2353919.5,164435904.0,159188944.0
2353919.5,164471360.0,159193776.0
2357142.75,164492304.0,159193776.0
2353113.5,164415744.0,159202640.0
2357948.75,164463296.0,159201824.0
2352307.75,164490688.0,159187328.0
2355531.25,164471360.0,159189744.0
2353113.5,164468128.0,159233264.0
2354725.25,164479408.0,159201024.0
2350696.0,164436704.0,159200224.0
2357142.75,164532608.0,159226816.0
2350696.0,164527760.0,159247760.0
2357142.75,164533408.0,159250176.0
2357948.75,164485056.0,159249376.0
2360366.25,164481824.0,159201024.0
2361172.25,164501984.0,159248576.0
2356337.0,164535824.0,159237296.0
2358754.5,164565648.0,159279200.0
2357142.75,164563216.0,159238896.0
2357142.75,164604320.0,159262272.0
2361172.25,164569664.0,159325136.0
2361978.0,164612384.0,159303376.0
2359560.5,164622048.0,159292080.0
2357948.75,164672816.0,159371056.0
2361978.0,164647840.0,159316256.0
2357948.75,164709888.0,159331568.0
2362784.0,164685712.0,159258240.0
2365201.5,164735680.0,159372672.0
2365201.5,164751792.0,159383152.0
2365201.5,164738096.0,159352528.0
2362784.0,164841248.0,159434720.0
2366007.25,164809008.0,159420224.0
2365201.5,164764688.0,159370256.0
2367619.0,164761472.0,159364608.0
2365201.5,164737296.0,159303376.0
2357948.75,164653472.0,159305792.0
2359560.5,164607552.0,159352528.0
2360366.25,164633328.0,159312240.0
2360366.25,164568064.0,159283216.0
2358754.5,164577728.0,159255824.0
2355531.25,164540656.0,159241312.0
2358754.5,164516480.0,159294512.0
2361172.25,164546304.0,159295312.0
2357948.75,164485056.0,159273552.0
2360366.25,164516480.0,159282416.0
2358754.5,164527760.0,159293696.0
2357948.75,164510848.0,159305792.0
2361172.25,164515680.0,159243744.0
2361172.25,164510032.0,159282416.0
2357142.75,164499568.0,159308208.0
2358754.5,164506816.0,159261472.0
2357948.75,164536624.0,159281616.0
2354725.25,164535824.0,159312240.0
2360366.25,164545488.0,159281616.0
2355531.25,164552752.0,159259856.0
2360366.25,164568064.0,159288864.0
2357142.75,164605136.0,159313840.0
2360366.25,164514864.0,159306592.0
2359560.5,164589008.0,159286448.0
2364395.5,164569664.0,159329968.0
2368425.0,164586592.0,159352528.0
2363589.75,164588208.0,159328352.0
2365201.5,164588208.0,159268720.0
2366813.25,164635744.0,159377504.0
2360366.25,164601104.0,159309824.0
2366007.25,164596256.0,159392816.0
2362784.0,164660736.0,159370256.0
2361172.25,164684912.0,159405712.0
2365201.5,164754208.0,159347696.0
2362784.0,164730032.0,159411360.0
2364395.5,164725200.0,159371872.0
2365201.5,164735680.0,159429888.0
2365201.5,164780800.0,159383152.0
2366813.25,164790480.0,159401680.0
2366007.25,164785648.0,159391216.0
2358754.5,164793696.0,159344464.0
2361172.25,164780800.0,159306592.0
2365201.5,164733264.0,159374288.0
2361978.0,164662352.0,159286448.0
2358754.5,164677648.0,159329152.0
2357948.75,164628496.0,159346880.0
2362784.0,164588208.0,159306592.0
2360366.25,164541472.0,159287248.0
2354725.25,164530992.0,159322704.0
2358754.5,164563216.0,159238096.0
2358754.5,164504400.0,159255024.0
2364395.5,164484256.0,159258240.0
2357142.75,164484256.0,159250992.0
2357948.75,164518896.0,159236480.0
2361978.0,164542272.0,159318688.0
2356337.0,164485856.0,159266304.0
2357948.75,164497136.0,159300144.0
2359560.5,164527760.0,159329968.0
2362784.0,164529376.0,159296112.0
2361172.25,164569664.0,159307392.0
2362784.0,164530176.0,159327552.0
2361172.25,164556784.0,159238896.0
2364395.5,164558384.0,159315456.0
2355531.25,164586592.0,159312240.0
2366813.25,164565648.0,159280800.0
2363589.75,164601904.0,159304976.0
2364395.5,164570480.0,159301760.0
2365201.5,164561616.0,159314656.0
2364395.5,164572896.0,159277584.0
2361978.0,164564032.0,159260656.0
2366813.25,164643808.0,159350912.0
2366007.25,164631728.0,159342048.0
2370842.5,164569664.0,159286448.0
2370036.75,164655904.0,159314656.0
2373260.0,164691360.0,159368640.0
2364395.5,164698608.0,159373472.0
2368425.0,164681680.0,159326736.0
2367619.0,164700224.0,159393632.0
2364395.5,164733264.0,159407328.0
2371648.25,164708272.0,159390400.0
2370036.75,164814656.0,159400080.0
2373260.0,164753408.0,159397648.0
2362784.0,164771936.0,159392016.0
2375677.75,164830768.0,159354144.0
2372454.25,164821104.0,159404912.0
2374066.0,164772752.0,159366224.0
2366007.25,164806592.0,159387184.0
2370842.5,164721984.0,159355744.0
2365201.5,164668784.0,159352528.0
2367619.0,164623664.0,159316256.0
2369230.75,164614800.0,159255024.0
2368425.0,164571280.0,159329968.0
2363589.75,164642192.0,159321104.0
2371648.25,164499568.0,159291280.0
2363589.75,164593040.0,159280000.0
2360366.25,164559200.0,159295312.0
2365201.5,164574512.0,159296112.0
2372454.25,164574512.0,159307392.0
2364395.5,164556784.0,159296928.0
2366007.25,164543072.0,159293696.0
2363589.75,164581760.0,159274352.0
2365201.5,164552752.0,159284032.0
2360366.25,164580144.0,159320288.0
2366007.25,164584176.0,159307392.0
2363589.75,164564832.0,159309008.0
2361172.25,164632528.0,159305792.0
2367619.0,164615600.0,159312240.0
2368425.0,164620432.0,159329968.0
2361172.25,164605936.0,159279200.0
2366813.25,164669600.0,159332384.0
2366813.25,164597872.0,159333184.0
2366813.25,164555968.0,159317072.0
2368425.0,164647840.0,159322704.0
2368425.0,164658320.0,159294512.0
2368425.0,164654288.0,159314656.0
2369230.75,164650256.0,159329152.0
2367619.0,164682496.0,159289664.0
2361978.0,164682496.0,159352528.0
2369230.75,164680080.0,159323520.0
2366813.25,164694576.0,159348496.0
2374871.75,164752608.0,159326736.0
2371648.25,164754208.0,159343664.0
2366007.25,164755824.0,159341248.0
2366007.25,164751792.0,159298528.0
2375677.75,164758240.0,159328352.0
2367619.0,164812240.0,159350912.0
2373260.0,164842864.0,159404096.0
2373260.0,164850912.0,159387984.0
2377289.5,164863008.0,159383952.0
2371648.25,164835600.0,159379120.0
2370036.75,164848496.0,159307392.0
2374066.0,164817072.0,159355744.0
2371648.25,164749376.0,159357360.0
2366813.25,164771936.0,159304976.0
2364395.5,164717952.0,159314656.0
2362784.0,164641392.0,159300960.0
2369230.75,164676048.0,159242928.0
2365201.5,164654288.0,159325136.0
2366007.25,164678464.0,159315456.0
2364395.5,164611568.0,159250992.0
2369230.75,164621248.0,159314656.0
2370842.5,164616416.0,159250992.0
2363589.75,164655904.0,159270336.0
2366007.25,164630912.0,159240512.0
2365201.5,164602704.0,159293696.0
2366813.25,164586592.0,159303376.0
2363589.75,164627696.0,159239712.0
2366813.25,164630112.0,159279200.0
2366007.25,164638976.0,159257440.0
2367619.0,164683296.0,159254208.0
2367619.0,164661536.0,159258240.0
2363589.75,164664768.0,159268720.0
2366007.25,164692960.0,159259856.0
2362784.0,164663152.0,159210688.0
2367619.0,164659920.0,159304976.0
2366813.25,164659920.0,159254208.0
2366007.25,164679264.0,159234064.0
2370842.5,164692960.0,159266304.0
2369230.75,164654288.0,159201024.0
2365201.5,164673632.0,159213920.0
2366813.25,164707472.0,159270336.0
2374871.75,164712304.0,159256624.0
2370036.75,164735680.0,159304976.0
2374066.0,164742928.0,159283216.0
2370842.5,164780000.0,159280000.0
2372454.25,164749376.0,159292896.0
2374066.0,164797728.0,159306592.0
2367619.0,164800960.0,159368640.0
2367619.0,164825136.0,159295312.0
2374066.0,164882352.0,159300960.0
2372454.25,164879920.0,159363808.0
2373260.0,164893632.0,159383152.0
2374871.75,164922640.0,159364608.0
2376483.5,164946000.0,159353328.0
2369230.75,164938752.0,159373472.0
2375677.75,164907328.0,159321904.0
2374871.75,164873472.0,159298528.0
2374066.0,164813040.0,159310624.0
2376483.5,164768720.0,159334000.0
2374871.75,164780000.0,159272752.0
2371648.25,164750992.0,159221168.0
2369230.75,164729232.0,159207472.0
2371648.25,164721168.0,159270336.0
2370842.5,164690544.0,159216336.0
2372454.25,164691360.0,159234064.0
2371648.25,164651056.0,159242128.0
2369230.75,164662352.0,159199408.0
2373260.0,164653472.0,159280000.0
2370036.75,164714720.0,159220368.0
2374066.0,164626880.0,159267104.0
2369230.75,164746160.0,159262272.0
2373260.0,164734064.0,159283216.0
2369230.75,164742128.0,159234064.0
2368425.0,164723584.0,159249376.0
2371648.25,164737296.0,159263888.0
2370036.75,164698608.0,159271936.0
2369230.75,164759856.0,159219568.0
2371648.25,164755024.0,159223584.0
2372454.25,164714720.0,159221984.0
2370036.75,164729232.0,159240512.0
2372454.25,164742128.0,159214720.0
2368425.0,164727616.0,159236480.0
2370036.75,164738896.0,159263888.0
2370842.5,164741312.0,159267920.0
2376483.5,164767920.0,159209088.0
2373260.0,164809824.0,159247760.0
2370036.75,164771136.0,159226000.0
2376483.5,164835600.0,159295312.0
2370036.75,164816256.0,159258240.0
2369230.75,164842864.0,159271136.0
2365201.5,164836416.0,159259040.0
2372454.25,164818688.0,159272752.0
2374066.0,164874288.0,159250176.0
2374066.0,164875088.0,159251792.0
2376483.5,164925056.0,159275168.0
2367619.0,164886368.0,159264688.0
2371648.25,164942784.0,159322704.0
2380512.75,164910544.0,159297728.0
2373260.0,164896848.0,159221168.0
2372454.25,164864608.0,159253408.0
2364395.5,164853328.0,159265488.0
2370842.5,164792896.0,159164768.0
2366007.25,164784832.0,159178464.0
2370842.5,164705856.0,159151872.0
2370036.75,164721168.0,159152672.0
2366813.25,164726000.0,159156704.0
2372454.25,164717952.0,159185712.0
2366813.25,164666368.0,159179264.0
2371648.25,164687328.0,159154288.0
2367619.0,164713120.0,159114800.0
2370036.75,164676848.0,159090624.0
2366007.25,164687328.0,159144608.0
2373260.0,164689744.0,159126080.0
2368425.0,164661536.0,159153472.0
2366007.25,164691360.0,159118016.0
2364395.5,164698608.0,159144608.0
2367619.0,164742128.0,159103520.0
2362784.0,164729232.0,159134144.0
2362784.0,164698608.0,159143808.0
2364395.5,164703440.0,159108352.0
2366813.25,164687328.0,159175232.0
2366813.25,164768720.0,159147040.0
2370842.5,164694576.0,159176848.0
2367619.0,164676848.0,159142192.0
2369230.75,164745344.0,159180080.0
2370036.75,164723584.0,159178464.0
2370842.5,164741312.0,159168784.0
2363589.75,164724400.0,159134944.0
2367619.0,164781616.0,159144608.0
2370036.75,164755024.0,159249376.0
2373260.0,164826736.0,159185712.0
2374871.75,164761472.0,159192160.0
2370842.5,164783216.0,159146224.0
2372454.25,164834000.0,159190544.0
2375677.75,164839632.0,159188944.0
2366007.25,164854944.0,159216336.0
2365201.5,164858176.0,159184096.0
2370036.75,164841248.0,159192160.0
2370842.5,164880736.0,159192160.0
2367619.0,164924256.0,159238896.0
2371648.25,164945200.0,159230848.0
2374066.0,164878320.0,159178464.0
2367619.0,164904912.0,159241312.0
2370842.5,164865424.0,159146224.0
2368425.0,164790480.0,159100288.0
2365201.5,164757440.0,159137360.0
2366813.25,164717136.0,159146224.0
2371648.25,164719568.0,159048720.0
2371648.25,164716336.0,159110768.0
2363589.75,164730032.0,159114000.0
2367619.0,164659920.0,159144608.0
2364395.5,164685712.0,159107552.0
2366813.25,164663952.0,159111568.0
2361172.25,164630112.0,159086592.0
2368425.0,164692160.0,159076112.0
2363589.75,164663952.0,159092240.0
2362784.0,164644608.0,159025344.0
2360366.25,164655904.0,159074512.0
2364395.5,164611568.0,159087392.0
2364395.5,164686528.0,159057584.0
2356337.0,164683296.0,159084176.0
2362784.0,164686528.0,159109152.0
2366813.25,164664768.0,159080144.0
2366007.25,164730032.0,159123664.0
2361978.0,164675232.0,159071280.0
2356337.0,164639776.0,159051136.0
2370036.75,164688128.0,159125280.0
2366007.25,164693776.0,159095456.0
2361978.0,164648640.0,159093040.0
2366007.25,164719568.0,159122048.0
2361978.0,164718752.0,159084176.0
2364395.5,164717136.0,159113184.0
2363589.75,164737296.0,159124464.0
2362784.0,164709088.0,159142192.0
2365201.5,164728432.0,159097072.0
2373260.0,164742128.0,159114800.0
2366007.25,164768720.0,159139776.0
2364395.5,164811424.0,159151056.0
2363589.75,164790480.0,159132528.0
2367619.0,164834800.0,159098688.0
2371648.25,164810624.0,159145424.0
2366007.25,164827552.0,159148640.0
2371648.25,164832384.0,159200224.0
2375677.75,164887984.0,159165568.0
2370036.75,164876704.0,159166368.0
2365201.5,164887984.0,159147040.0
2373260.0,164916992.0,159159920.0
2367619.0,164901680.0,159089008.0
2367619.0,164858176.0,159104320.0
2365201.5,164848496.0,159154288.0
2366813.25,164758240.0,159082560.0
2366813.25,164733264.0,159057584.0
2369230.75,164721984.0,159012448.0
2363589.75,164685712.0,159067248.0
2364395.5,164672816.0,159060000.0
2361978.0,164672016.0,159118016.0
2367619.0,164634144.0,159035824.0
2365201.5,164688944.0,159023744.0
2367619.0,164622048.0,159015680.0
2364395.5,164627696.0,159009232.0
2366813.25,164576112.0,159027760.0
2361978.0,164604320.0,159009232.0
2368425.0,164591424.0,159020512.0
2363589.75,164650256.0,159026160.0
2369230.75,164614800.0,159015680.0
2368425.0,164617216.0,159022128.0
2366813.25,164651872.0,159079344.0
2368425.0,164648640.0,159064032.0
2362784.0,164613184.0,159075312.0
