ppg_1,ppg_2,ppg_3
4140512.75,137590256.0,138147920.0
4135677.75,137564464.0,138086672.0
4133260.0,137562048.0,138113264.0
4137289.5,137627328.0,138127760.0
4138095.25,137647472.0,138097952.0
4145348.0,137615232.0,138156784.0
4150183.25,137666816.0,138144688.0
4146959.75,137698240.0,138125344.0
4134871.75,137765136.0,138181760.0
4137289.5,137762704.0,138218016.0
4146959.75,137788496.0,138187392.0
4139707.0,137774000.0,138203520.0
4145348.0,137757072.0,138240592.0
4141318.75,137674064.0,138241392.0
4134066.0,137594288.0,138258320.0
4148571.5,137532240.0,138218016.0
4137289.5,137505648.0,138209152.0
4147765.5,137466960.0,138209968.0
4139707.0,137425856.0,138185792.0
4138095.25,137441168.0,138155968.0
4138901.0,137449232.0,138151936.0
4130036.75,137456480.0,138212384.0
4145348.0,137421824.0,138183376.0
4138095.25,137479856.0,138186592.0
4145348.0,137489520.0,138189824.0
4148571.5,137495968.0,138196256.0
4147765.5,137482272.0,138215600.0
4155824.25,137557216.0,138262352.0
4147765.5,137511280.0,138258320.0
4160659.25,137502416.0,138246224.0
4150989.0,137512080.0,138238976.0
4150183.25,137473408.0,138233328.0
4156630.0,137513696.0,138284096.0
4160659.25,137500000.0,138287328.0
4162271.0,137546736.0,138332448.0
4158241.75,137575744.0,138305056.0
4158241.75,137528208.0,138301024.0
4163077.0,137609600.0,138315536.0
4166300.25,137612016.0,138338896.0
4171135.5,137606368.0,138332448.0
4174359.0,137650688.0,138351792.0
4169523.75,137670032.0,138374352.0
4180805.75,137668432.0,138374352.0
4172747.25,137684544.0,138375168.0
4173553.0,137668432.0,138394512.0
4182417.5,137741760.0,138364688.0
4181611.75,137790912.0,138383216.0
4180805.75,137757872.0,138444464.0
4187252.75,137797360.0,138413040.0
4185641.0,137836848.0,138413040.0
4191282.0,137827984.0,138400144.0
4190476.25,137878752.0,138470256.0
4192893.75,137883584.0,138446880.0
4200146.5,137985136.0,138501680.0
4200952.5,137974656.0,138493632.0
4196923.0,137957728.0,138515392.0
4195311.5,137969824.0,138428352.0
4200952.5,137996416.0,138488784.0
4178388.25,137987552.0,138489600.0
4183223.5,137915024.0,138446080.0
4180000.0,137848944.0,138434000.0
4182417.5,137731280.0,138416256.0
4180805.75,137684544.0,138440432.0
4185641.0,137668432.0,138387248.0
4191282.0,137669232.0,138458976.0
4189670.25,137609600.0,138395312.0
4181611.75,137661984.0,138451728.0
4188058.5,137638608.0,138349376.0
4184835.25,137639408.0,138361472.0
4182417.5,137636192.0,138420288.0
4180000.0,137655536.0,138389664.0
4181611.75,137683744.0,138384832.0
4188864.5,137757872.0,138417872.0
4196117.0,137697440.0,138417872.0
4189670.25,137722416.0,138427552.0
4198535.0,137703072.0,138400144.0
4194505.5,137723216.0,138408208.0
4196923.0,137729664.0,138412240.0
4201758.0,137713552.0,138429152.0
4196923.0,137678896.0,138428352.0
4192893.75,137680512.0,138428352.0
4203370.0,137720800.0,138459776.0
4198535.0,137753040.0,138443664.0
4204981.5,137771568.0,138386448.0
4205787.5,137728864.0,138459776.0
4214652.0,137738528.0,138478320.0
4213040.5,137819920.0,138455744.0
4209011.0,137852160.0,138509744.0
4217069.5,137857808.0,138452528.0
4223516.5,137872304.0,138511360.0
4213040.5,137913408.0,138506528.0
4217069.5,137930336.0,138576624.0
4217875.5,137948064.0,138567760.0
4215458.0,137965792.0,138558096.0
4233187.0,137998016.0,138545200.0
4223516.5,138002048.0,138620960.0
4227546.0,138059264.0,138538752.0
4222710.5,138085056.0,138576624.0
4233187.0,138091504.0,138624976.0
4232381.0,138129376.0,138617728.0
4226740.0,138120512.0,138667696.0
4232381.0,138158384.0,138598384.0
4222710.5,138151936.0,138633840.0
4224322.5,138101984.0,138668496.0
4227546.0,138062496.0,138655600.0
4223516.5,138011728.0,138579040.0
4213040.5,137922272.0,138579856.0
4218681.5,137875536.0,138589520.0
4214652.0,137869088.0,138612080.0
4218681.5,137832016.0,138535536.0
4213846.0,137836848.0,138574208.0
4218681.5,137811056.0,138528272.0
4225934.0,137856992.0,138593552.0
4215458.0,137840880.0,138585488.0
4217875.5,137863440.0,138587920.0
4216263.5,137861824.0,138566960.0
4217875.5,137867472.0,138570176.0
4215458.0,137888432.0,138571792.0
4222710.5,137900512.0,138541984.0
4222710.5,137949664.0,138582272.0
4229963.5,137905344.0,138568576.0
4225128.0,137924688.0,138621760.0
4221905.0,137895680.0,138583072.0
4229157.5,137874720.0,138579040.0
4225128.0,137877136.0,138593552.0
4227546.0,137946448.0,138624976.0
4232381.0,137927920.0,138586304.0
4233992.5,137956928.0,138666080.0
4242051.5,137981904.0,138595168.0
4248498.0,137967392.0,138645136.0
4249304.0,137987552.0,138565344.0
4242051.5,137977072.0,138600000.0
4241245.5,138028640.0,138641904.0
4246886.5,138010912.0,138638688.0
4237216.0,138060880.0,138626592.0
4242051.5,138077808.0,138654800.0
4243663.0,138141472.0,138685424.0
4253333.5,138147920.0,138678976.0
4254945.0,138155168.0,138682192.0
4255751.0,138151936.0,138628208.0
4258974.5,138193040.0,138704768.0
4255751.0,138210768.0,138737808.0
4271062.5,138225280.0,138695088.0
4271868.0,138294576.0,138709600.0
4270256.5,138317136.0,138722496.0
4261392.0,138264768.0,138724096.0
4267033.0,138296992.0,138724096.0
4268644.5,138275232.0,138723296.0
4251721.5,138300224.0,138742640.0
4254139.0,138273632.0,138748272.0
4259780.0,138179344.0,138748272.0
4254139.0,138105200.0,138707984.0
4258974.5,138027040.0,138656416.0
4260586.0,138023808.0,138698320.0
4254945.0,138006880.0,138706368.0
4259780.0,137961760.0,138665280.0
4252527.5,137979488.0,138616112.0
4257362.5,137984320.0,138686224.0
4262198.0,137946448.0,138662048.0
4259780.0,137993184.0,138670112.0
4259780.0,138013328.0,138668496.0
4254139.0,138000432.0,138656416.0
4256557.0,138024608.0,138678976.0
4263003.5,137989152.0,138638688.0
4267033.0,138051216.0,138674944.0
4261392.0,138089888.0,138676560.0
4264615.5,138082640.0,138652384.0
4261392.0,138045568.0,138697504.0
4265421.0,138028640.0,138685424.0
4264615.5,138061680.0,138674144.0
4259780.0,138027040.0,138700736.0
4262198.0,138005280.0,138680592.0
4264615.5,138076192.0,138680592.0
4265421.0,138072960.0,138674944.0
4268644.5,138093120.0,138669312.0
4263809.5,138136624.0,138674144.0
4260586.0,138172080.0,138723296.0
4264615.5,138172080.0,138686224.0
4267839.0,138151936.0,138696704.0
4276703.5,138200288.0,138712816.0
4277509.0,138218016.0,138698320.0
4276703.5,138251056.0,138724096.0
4272674.0,138265568.0,138712816.0
4276703.5,138267984.0,138726528.0
4275091.5,138292960.0,138766816.0
4276703.5,138298608.0,138712816.0
4283150.0,138322784.0,138751504.0
4275897.5,138392896.0,138786160.0
4281538.5,138361472.0,138673328.0
4279926.5,138354208.0,138659632.0
4282344.5,138360656.0,138624176.0
4274285.5,138393696.0,138701536.0
4276703.5,138425136.0,138639488.0
4282344.5,138416256.0,138710400.0
4282344.5,138359856.0,138642704.0
4277509.0,138259120.0,138679776.0
4270256.5,138234944.0,138649152.0
4277509.0,138159200.0,138657216.0
4269450.5,138136624.0,138650768.0
4272674.0,138089888.0,138634656.0
4266227.0,138043952.0,138610480.0
4270256.5,138109232.0,138613696.0
4272674.0,138027040.0,138618528.0
4271868.0,138066528.0,138624976.0
4271062.5,138069744.0,138595968.0
4267033.0,138081024.0,138638688.0
4276703.5,138115680.0,138605648.0
4270256.5,138140656.0,138595168.0
4270256.5,138138240.0,138611280.0
4279121.0,138155968.0,138631424.0
4269450.5,138155168.0,138576624.0
4271062.5,138159200.0,138597584.0
4278315.0,138134208.0,138606448.0
4271062.5,138155968.0,138634656.0
4263809.5,138155968.0,138612896.0
4273480.0,138114864.0,138592752.0
4271868.0,138143888.0,138643520.0
4277509.0,138104400.0,138654000.0
4277509.0,138178528.0,138642704.0
4275897.5,138208352.0,138619344.0
4275897.5,138222864.0,138633840.0
4281538.5,138209968.0,138643520.0
4279121.0,138244608.0,138633040.0
4284762.0,138283296.0,138616112.0
4294432.0,138276848.0,138654800.0
4287179.5,138332448.0,138681392.0
4294432.0,138321168.0,138633040.0
4292014.5,138340512.0,138641904.0
4296044.0,138340512.0,138618528.0
4290403.0,138393696.0,138675744.0
4292014.5,138420288.0,138645936.0
4291209.0,138438832.0,138691872.0
4298461.5,138416256.0,138662048.0
4298461.5,138422704.0,138657216.0
4304102.5,138465424.0,138714432.0
4300073.5,138526672.0,138649968.0
4295238.0,138528272.0,138666080.0
4296850.0,138524256.0,138673328.0
4296850.0,138521024.0,138728944.0
4304908.5,138488784.0,138666080.0
4304908.5,138429968.0,138724912.0
4299267.5,138346960.0,138646736.0
4295238.0,138328432.0,138629008.0
4289597.0,138263152.0,138587920.0
4287179.5,138250256.0,138620144.0
4292014.5,138218832.0,138590336.0
4287985.5,138173696.0,138537136.0
4279121.0,138192240.0,138559712.0
4296044.0,138208352.0,138567760.0
4280732.5,138186592.0,138581472.0
4283956.0,138178528.0,138558896.0
4297655.5,138176928.0,138510544.0
4285568.0,138202704.0,138595168.0
4300879.0,138253472.0,138546816.0
4292014.5,138233328.0,138516192.0
4292014.5,138250256.0,138561312.0
4296044.0,138222864.0,138551648.0
4290403.0,138252672.0,138584688.0
4293626.5,138247040.0,138559712.0
4290403.0,138258320.0,138557296.0
4286373.5,138250256.0,138541984.0
4287179.5,138272816.0,138537136.0
4298461.5,138222864.0,138484768.0
4290403.0,138259120.0,138538752.0
4295238.0,138303440.0,138516192.0
4302491.0,138266368.0,138566160.0
4299267.5,138272816.0,138552448.0
4307326.0,138368720.0,138543584.0
4307326.0,138346960.0,138538752.0
4304102.5,138359040.0,138553264.0
4303296.5,138411424.0,138559712.0
4308132.0,138439632.0,138519408.0
4306520.0,138431568.0,138549232.0
4311355.5,138438016.0,138550848.0
4311355.5,138429968.0,138568576.0
4309743.5,138508944.0,138571792.0
4307326.0,138464608.0,138545200.0
4316190.5,138548432.0,138595168.0
4315384.5,138568576.0,138546000.0
4321025.5,138548432.0,138587104.0
4320220.0,138562128.0,138570992.0
4317802.0,138579040.0,138562928.0
4315384.5,138613696.0,138629824.0
4317802.0,138600000.0,138577440.0
4318608.0,138674144.0,138591936.0
4321831.5,138637872.0,138546816.0
4318608.0,138566160.0,138600800.0
4315384.5,138486368.0,138568576.0
4314579.0,138430768.0,138519408.0
4300879.0,138400960.0,138508944.0
4306520.0,138292960.0,138482352.0
4304102.5,138294576.0,138506528.0
4308132.0,138303440.0,138490400.0
4308937.5,138308272.0,138438016.0
4317802.0,138313920.0,138469456.0
4300879.0,138286528.0,138500880.0
4307326.0,138292960.0,138411424.0
4307326.0,138314720.0,138418688.0
4293626.5,138306672.0,138433184.0
4301685.0,138309088.0,138425136.0
4308132.0,138331648.0,138444464.0
4300879.0,138320368.0,138359856.0
4292014.5,138339712.0,138406592.0
4296044.0,138326000.0,138428352.0
4292014.5,138315536.0,138346960.0
4299267.5,138343744.0,138387248.0
4294432.0,138290544.0,138372752.0
4303296.5,138308272.0,138378384.0
4304908.5,138308272.0,138388064.0
4301685.0,138334064.0,138307472.0
4296044.0,138343744.0,138360656.0
4296850.0,138417072.0,138346160.0
4294432.0,138415456.0,138377584.0
4304908.5,138369520.0,138378384.0
4293626.5,138420288.0,138350176.0
4305714.5,138378384.0,138374352.0
4296044.0,138460592.0,138370336.0
4315384.5,138440432.0,138346960.0
4300073.5,138464608.0,138375968.0
4305714.5,138487184.0,138389664.0
4308132.0,138486368.0,138342928.0
4299267.5,138534720.0,138421104.0
4306520.0,138511360.0,138342928.0
4303296.5,138581472.0,138409008.0
4305714.5,138583888.0,138363888.0
4300073.5,138619344.0,138356624.0
4310549.5,138612896.0,138353408.0
4311355.5,138649968.0,138370336.0
4308132.0,138672528.0,138348576.0
4303296.5,138656416.0,138365488.0
4311355.5,138696704.0,138378384.0
4305714.5,138705568.0,138378384.0
4308937.5,138661248.0,138367920.0
4305714.5,138645936.0,138396112.0
4296850.0,138579856.0,138362272.0
4292014.5,138478320.0,138326816.0
4299267.5,138424320.0,138332448.0
4288791.0,138337296.0,138250256.0
4287179.5,138379200.0,138242192.0
4285568.0,138302640.0,138267184.0
4282344.5,138306672.0,138236560.0
4287985.5,138267184.0,138236560.0
4281538.5,138273632.0,138195456.0
4274285.5,138250256.0,138156784.0
4273480.0,138222048.0,138159200.0
4273480.0,138241392.0,138157584.0
4272674.0,138217216.0,138114864.0
4268644.5,138276848.0,138198688.0
4266227.0,138236560.0,138170480.0
4263003.5,138278464.0,138131792.0
4261392.0,138302640.0,138111648.0
4272674.0,138245424.0,138138240.0
4267033.0,138256704.0,138086672.0
4268644.5,138258320.0,138097952.0
4267033.0,138261536.0,138135824.0
4272674.0,138237360.0,138071360.0
4267033.0,138275232.0,138096336.0
4264615.5,138238176.0,138010912.0
4267033.0,138281680.0,138065712.0
4263809.5,138285712.0,138070544.0
4259780.0,138272016.0,138089888.0
4259780.0,138288128.0,138110032.0
4265421.0,138326816.0,138079408.0
4267839.0,138361472.0,138127760.0
4262198.0,138307472.0,138101984.0
4266227.0,138387248.0,138085056.0
4261392.0,138376784.0,138070544.0
4263809.5,138359856.0,138095536.0
4263003.5,138422704.0,138080224.0
4271868.0,138382416.0,138110848.0
4258168.5,138419488.0,138106816.0
4267033.0,138428352.0,138101984.0
4266227.0,138486368.0,138110032.0
4258168.5,138446880.0,138080224.0
4261392.0,138492016.0,138089888.0
4263003.5,138484768.0,138104400.0
4261392.0,138535536.0,138111648.0
4260586.0,138586304.0,138092304.0
4255751.0,138569376.0,138143888.0
4259780.0,138571792.0,138133408.0
4267839.0,138592752.0,138104400.0
4265421.0,138574208.0,138115680.0
4265421.0,138637072.0,138129376.0
4270256.5,138616928.0,138081824.0
4263809.5,138554864.0,138137440.0
4254945.0,138537952.0,138114064.0
4251721.5,138485568.0,138094720.0
4247692.5,138383216.0,138067328.0
4246886.5,138309088.0,138014944.0
4243663.0,138288944.0,137999632.0
4238022.0,138218832.0,137935968.0
4246080.5,138189008.0,137915024.0
4239633.5,138164032.0,137999632.0
4235604.5,138139856.0,137912608.0
4239633.5,138083440.0,137925488.0
4232381.0,138120512.0,137881984.0
4218681.5,138112448.0,137948064.0
4220293.0,138085856.0,137919856.0
4229157.5,138048784.0,137912608.0
4229157.5,138089088.0,137839264.0
4225128.0,138072960.0,137873120.0
4225934.0,138129376.0,137867472.0
4228351.5,138127760.0,137853776.0
4223516.5,138102784.0,137864256.0
4214652.0,138077808.0,137784464.0
4223516.5,138110848.0,137862640.0
4213846.0,138114064.0,137886000.0
4211428.5,138052816.0,137798176.0
4216263.5,138075392.0,137846528.0
4209817.0,138095536.0,137857808.0
4224322.5,138055232.0,137850544.0
4216263.5,138084256.0,137821536.0
4223516.5,138064912.0,137811056.0
4213846.0,138093120.0,137844912.0
4213040.5,138088272.0,137828784.0
4204981.5,138131792.0,137842496.0
4215458.0,138150336.0,137815904.0
4218681.5,138176112.0,137823952.0
4213040.5,138230912.0,137827984.0
4217069.5,138185792.0,137819120.0
4217875.5,138214800.0,137856992.0
4216263.5,138176928.0,137883584.0
4212234.5,138243808.0,137906960.0
4211428.5,138283296.0,137831216.0
4210622.5,138276848.0,137880368.0
4219487.0,138296992.0,137872304.0
4217069.5,138382416.0,137937584.0
4221099.0,138329232.0,137873920.0
4215458.0,138400144.0,137886816.0
4215458.0,138365488.0,137891648.0
4216263.5,138404176.0,137952896.0
4215458.0,138384832.0,137926304.0
4215458.0,138406592.0,137960144.0
4225128.0,138429152.0,137966592.0
4225934.0,138496048.0,137969824.0
4217875.5,138467840.0,137977072.0
4221905.0,138534720.0,137992384.0
4218681.5,138498464.0,137944832.0
4209817.0,138546816.0,137950480.0
4219487.0,138497648.0,137967392.0
4211428.5,138406592.0,137989152.0
4215458.0,138317136.0,137944032.0
4214652.0,138239776.0,137910176.0
4211428.5,138239776.0,137882784.0
4207399.5,138158384.0,137895680.0
4212234.5,138103584.0,137892448.0
4207399.5,138086672.0,137847328.0
4206593.5,138115680.0,137776416.0
4209817.0,138055232.0,137840880.0
4194505.5,138092304.0,137769152.0
4194505.5,138035904.0,137837648.0
4188864.5,138043952.0,137805424.0
4184835.25,138056848.0,137836048.0
4188058.5,138067328.0,137806224.0
4192893.75,138078608.0,137839264.0
4193699.75,138101984.0,137844096.0
4191282.0,138106816.0,137798176.0
4192893.75,138104400.0,137776416.0
4185641.0,138083440.0,137883584.0
4180000.0,138090688.0,137782864.0
4187252.75,138088272.0,137813472.0
4186447.0,138107616.0,137840080.0
4188864.5,138097136.0,137786880.0
4186447.0,138130992.0,137781248.0
4183223.5,138126160.0,137844912.0
4187252.75,138164832.0,137877136.0
4184835.25,138126160.0,137901312.0
4192088.0,138118896.0,137810256.0
4192088.0,138187392.0,137892448.0
4192088.0,138173696.0,137877952.0
4192893.75,138222048.0,137906960.0
4189670.25,138207552.0,137877952.0
4186447.0,138258320.0,137881168.0
4201758.0,138262352.0,137892448.0
4197729.0,138292160.0,137966592.0
4197729.0,138336480.0,137935968.0
4200146.5,138308272.0,137918240.0
4202564.0,138372752.0,137946448.0
4206593.5,138375168.0,137980288.0
4210622.5,138382416.0,138006080.0
4203370.0,138418688.0,137962560.0
4200146.5,138438016.0,138047184.0
4202564.0,138421904.0,137998832.0
4213040.5,138432384.0,138037504.0
4208205.0,138482352.0,138007696.0
4214652.0,138492016.0,138037504.0
4209817.0,138496048.0,138099568.0
4214652.0,138595168.0,138054432.0
4221905.0,138550032.0,138047184.0
4231575.0,138607248.0,138103584.0
4229963.5,138634656.0,138067328.0
4225934.0,138600000.0,138088272.0
4225934.0,138599200.0,138114064.0
4231575.0,138644320.0,138072960.0
4224322.5,138624176.0,138088272.0
4225934.0,138603216.0,138073776.0
4232381.0,138528272.0,138121312.0
4223516.5,138423520.0,138072160.0
4213846.0,138396112.0,138113264.0
4224322.5,138336480.0,138052816.0
4221905.0,138284912.0,138070544.0
4224322.5,138262352.0,137987552.0
4221099.0,138327616.0,138052016.0
4217069.5,138302640.0,138051216.0
4220293.0,138308272.0,138014144.0
4217069.5,138272816.0,138060880.0
4222710.5,138301024.0,137989152.0
4209817.0,138363888.0,138084256.0
4217069.5,138371936.0,138059264.0
4221905.0,138359040.0,138022192.0
4217875.5,138413040.0,138005280.0
4220293.0,138419488.0,138067328.0
4221905.0,138383216.0,138049600.0
4221099.0,138405792.0,138095536.0
4216263.5,138375168.0,138101168.0
4217875.5,138350176.0,138066528.0
4216263.5,138363072.0,138060880.0
4217069.5,138374352.0,138060080.0
4216263.5,138420288.0,138056048.0
4224322.5,138361472.0,138071360.0
4206593.5,138421104.0,138079408.0
4217069.5,138482352.0,138085856.0
4217875.5,138469456.0,138137440.0
4225128.0,138462192.0,138094720.0
4212234.5,138508128.0,138111648.0
4214652.0,138514576.0,138142272.0
4216263.5,138531504.0,138133408.0
4217069.5,138562128.0,138141472.0
4217069.5,138571792.0,138160000.0
4217069.5,138612896.0,138126160.0
4225934.0,138628208.0,138180960.0
4227546.0,138635456.0,138168864.0
4220293.0,138638688.0,138166448.0
4231575.0,138658832.0,138201904.0
4229963.5,138658832.0,138192240.0
4233187.0,138695904.0,138182560.0
4226740.0,138778096.0,138226080.0
4231575.0,138748272.0,138247040.0
4236410.5,138815168.0,138292960.0
4238828.0,138807920.0,138222864.0
4237216.0,138868352.0,138266368.0
4238828.0,138828064.0,138266368.0
4238022.0,138839344.0,138238176.0
4237216.0,138890112.0,138344544.0
4240439.5,138927184.0,138337296.0
4232381.0,138968272.0,138342128.0
4243663.0,138948128.0,138313920.0
4242051.5,139024688.0,138351792.0
4246886.5,138949744.0,138371136.0
4237216.0,138989232.0,138361472.0
4230769.0,138926368.0,138330032.0
4243663.0,138851424.0,138288128.0
4238022.0,138797440.0,138296192.0
4235604.5,138727328.0,138229312.0
4238022.0,138724912.0,138272016.0
4227546.0,138699920.0,138281680.0
4237216.0,138616112.0,138250256.0
4238022.0,138670112.0,138249456.0
4229963.5,138690256.0,138260736.0
4228351.5,138703152.0,138250256.0
4232381.0,138714432.0,138279264.0
4238828.0,138753120.0,138292160.0
4234798.5,138752304.0,138250256.0
4234798.5,138765200.0,138255088.0
4233992.5,138771648.0,138301824.0
4241245.5,138802272.0,138326000.0
4245274.5,138803888.0,138238976.0
4245274.5,138762784.0,138303440.0
4237216.0,138826448.0,138330848.0
4241245.5,138786960.0,138328432.0
4242051.5,138801472.0,138285712.0
4241245.5,138840144.0,138282496.0
4250110.0,138793408.0,138282496.0
4242857.0,138820000.0,138309888.0
4242051.5,138824832.0,138284096.0
4242051.5,138862704.0,138334864.0
4244469.0,138836112.0,138338096.0
4254139.0,138912672.0,138303440.0
4246886.5,138898176.0,138363888.0
4248498.0,138920736.0,138268784.0
4258974.5,138950544.0,138371936.0
4255751.0,138968272.0,138324400.0
4263003.5,139000512.0,138370336.0
4253333.5,138998096.0,138370336.0
4255751.0,139075456.0,138429152.0
4256557.0,139047248.0,138404976.0
4260586.0,139083520.0,138383216.0
4257362.5,139085936.0,138376784.0
4266227.0,139114144.0,138393696.0
4261392.0,139163296.0,138446880.0
4271868.0,139123008.0,138462192.0
4265421.0,139177808.0,138458976.0
4271868.0,139160880.0,138481536.0
4275091.5,139180224.0,138450912.0
4267839.0,139230176.0,138475904.0
4268644.5,139212448.0,138408208.0
4270256.5,139276928.0,138440432.0
4279121.0,139269664.0,138498464.0
4276703.5,139311568.0,138509744.0
4278315.0,139314000.0,138482352.0
4279926.5,139355088.0,138462192.0
4279926.5,139367984.0,138502496.0
4277509.0,139335744.0,138512960.0
4278315.0,139300288.0,138442864.0
4271868.0,139230176.0,138485568.0
4269450.5,139189888.0,138473472.0
4271868.0,139147184.0,138454144.0
4280732.5,139056112.0,138442048.0
4265421.0,139061760.0,138457360.0
4264615.5,139064976.0,138442864.0
4260586.0,139115744.0,138432384.0
4256557.0,139052080.0,138423520.0
4267033.0,139052080.0,138439632.0
4258168.5,139081104.0,138506528.0
4263003.5,139096416.0,138429968.0
4268644.5,139106880.0,138400144.0
4258974.5,139152016.0,138462192.0
4271062.5,139200368.0,138413840.0
4269450.5,139225344.0,138498464.0
4263003.5,139178608.0,138463008.0
4267033.0,139172160.0,138469456.0
4279926.5,139198752.0,138482352.0
4272674.0,139200368.0,138488784.0
4269450.5,139208432.0,138477504.0
4271868.0,139210848.0,138505712.0
4276703.5,139194720.0,138459776.0
4271868.0,139215680.0,138504096.0
4276703.5,139209232.0,138467040.0
4276703.5,139238240.0,138476704.0
4279121.0,139300288.0,138472672.0
4278315.0,139259200.0,138493632.0
4278315.0,139276112.0,138502496.0
4280732.5,139311568.0,138454944.0
4291209.0,139339776.0,138528272.0
4292820.5,139297872.0,138501680.0
4296044.0,139338976.0,138508128.0
4290403.0,139345424.0,138515392.0
4294432.0,139384912.0,138529088.0
4303296.5,139395392.0,138481536.0
4304908.5,139418752.0,138517808.0
4296850.0,139423584.0,138485568.0
4300073.5,139428432.0,138526672.0
4298461.5,139454208.0,138504912.0
4306520.0,139509824.0,138536336.0
4301685.0,139552528.0,138527472.0
4304908.5,139517072.0,138551648.0
4305714.5,139572672.0,138544400.0
4312161.0,139567040.0,138517808.0
4313773.0,139575088.0,138527472.0
4318608.0,139573472.0,138532304.0
4322637.5,139627472.0,138564544.0
4333919.5,139659712.0,138520224.0
4325861.0,139631504.0,138531504.0
4326666.5,139693552.0,138519408.0
4323443.0,139599264.0,138522640.0
4316190.5,139588784.0,138485568.0
4312967.0,139528352.0,138512160.0
4316190.5,139481616.0,138532304.0
4309743.5,139430848.0,138490400.0
4309743.5,139328496.0,138405792.0
4314579.0,139375232.0,138481536.0
4301685.0,139329312.0,138484768.0
4305714.5,139368784.0,138458176.0
4307326.0,139325280.0,138458976.0
4312161.0,139358320.0,138389664.0
4313773.0,139363152.0,138430768.0
4309743.5,139390544.0,138471056.0
4317802.0,139404256.0,138455744.0
4310549.5,139476784.0,138458976.0
4325861.0,139467920.0,138446880.0
4322637.5,139426000.0,138454144.0
4325861.0,139428432.0,138426736.0
4323443.0,139463888.0,138433184.0
4323443.0,139422784.0,138417872.0
4324249.0,139413120.0,138443664.0
4325861.0,139421984.0,138404176.0
4320220.0,139475968.0,138438832.0
4321025.5,139463888.0,138427552.0
4322637.5,139465488.0,138411424.0
4323443.0,139464688.0,138404976.0
4327472.5,139485648.0,138408208.0
4330696.0,139481616.0,138454144.0
4324249.0,139510624.0,138379200.0
4332307.5,139514656.0,138386448.0
4332307.5,139573472.0,138457360.0
4329890.0,139533184.0,138471872.0
4334725.5,139557360.0,138485568.0
4334725.5,139585568.0,138409008.0
4335531.0,139615392.0,138414656.0
4336337.0,139617808.0,138448496.0
4349231.0,139653264.0,138428352.0
4346007.5,139663744.0,138449312.0
4343589.5,139639568.0,138488784.0
4347619.0,139657296.0,138419488.0
4357289.5,139694352.0,138401760.0
4344395.5,139701616.0,138464608.0
4346813.0,139697584.0,138445280.0
4347619.0,139761248.0,138413840.0
4349231.0,139741904.0,138401760.0
4354872.0,139774144.0,138391280.0
4348425.0,139754800.0,138427552.0
4353260.0,139754000.0,138457360.0
4360513.0,139691936.0,138413040.0
4346007.5,139635536.0,138426736.0
4352454.0,139547696.0,138372752.0
4341172.0,139492080.0,138366304.0
4350036.5,139513040.0,138367104.0
4342784.0,139428432.0,138320368.0
4341172.0,139369600.0,138298608.0
4326666.5,139421168.0,138317952.0
4340366.5,139481616.0,138292960.0
4333113.5,139417952.0,138342928.0
4338754.5,139473552.0,138282496.0
4334725.5,139471936.0,138298608.0
4338754.5,139492080.0,138287328.0
4336337.0,139550112.0,138263952.0
4338754.5,139512240.0,138313120.0
4341172.0,139492080.0,138276848.0
4342784.0,139517872.0,138323584.0
4339560.5,139533184.0,138254288.0
4338754.5,139558176.0,138299408.0
4341978.0,139502560.0,138193040.0
4344395.5,139458240.0,138240592.0
4335531.0,139500960.0,138241392.0
4341978.0,139512240.0,138234144.0
4335531.0,139492896.0,138214000.0
4334725.5,139524320.0,138152752.0
4337948.5,139554144.0,138208352.0
4339560.5,139552528.0,138229312.0
4344395.5,139571056.0,138199488.0
4345201.5,139603296.0,138246224.0
4341172.0,139582352.0,138236560.0
4341978.0,139571056.0,138226080.0
4341978.0,139589600.0,138182560.0
4352454.0,139596048.0,138151136.0
4343589.5,139616992.0,138204320.0
4351648.5,139621024.0,138176112.0
4346007.5,139620224.0,138205136.0
4347619.0,139633120.0,138201104.0
4345201.5,139669376.0,138189824.0
4354872.0,139645200.0,138173696.0
4349231.0,139717728.0,138161616.0
4341172.0,139691936.0,138145488.0
4353260.0,139671792.0,138158384.0
4348425.0,139658896.0,138123744.0
4346813.0,139684688.0,138088272.0
4339560.5,139608128.0,138130992.0
4333919.5,139511424.0,138110848.0
4333919.5,139426000.0,138080224.0
4325055.0,139421984.0,138021392.0
4330696.0,139367984.0,138000432.0
4321831.5,139328496.0,138086672.0
4321025.5,139301104.0,137932752.0
4319414.0,139272080.0,137947248.0
4321025.5,139347040.0,137973040.0
4329890.0,139326080.0,137970624.0
4318608.0,139357504.0,137981104.0
4326666.5,139355088.0,137891648.0
4324249.0,139388944.0,137967392.0
4325861.0,139351872.0,137932752.0
4325861.0,139382496.0,137946448.0
4324249.0,139447760.0,137971424.0
4321831.5,139388128.0,137927104.0
4324249.0,139337360.0,137879568.0
4321831.5,139366368.0,137859408.0
4325861.0,139316416.0,137876336.0
4316996.5,139313184.0,137865856.0
4321831.5,139272080.0,137835232.0
4323443.0,139360736.0,137851360.0
4326666.5,139331728.0,137822352.0
4319414.0,139314800.0,137845712.0
4321831.5,139340592.0,137849744.0
4321025.5,139404256.0,137836048.0
4322637.5,139397808.0,137839264.0
4324249.0,139393776.0,137810256.0
4322637.5,139423584.0,137795744.0
4333919.5,139411504.0,137837648.0
4330696.0,139419568.0,137833632.0
4331502.0,139428432.0,137800592.0
4331502.0,139494512.0,137876336.0
4325861.0,139490480.0,137884400.0
4330696.0,139457440.0,137843296.0
4343589.5,139459856.0,137774000.0
4340366.5,139490480.0,137828784.0
4342784.0,139558176.0,137819920.0
4341978.0,139505792.0,137806224.0
4336337.0,139468720.0,137814288.0
4333919.5,139421984.0,137781248.0
4328278.5,139310768.0,137786080.0
4329084.0,139238240.0,137740144.0
4326666.5,139192304.0,137714352.0
4313773.0,139164912.0,137680512.0
4320220.0,139155232.0,137717584.0
4313773.0,139140736.0,137682128.0
4318608.0,139118176.0,137633776.0
4309743.5,139131872.0,137650688.0
4316996.5,139142352.0,137650688.0
4310549.5,139115744.0,137646672.0
4314579.0,139147984.0,137610400.0
4321025.5,139115744.0,137607184.0
4312161.0,139176192.0,137603152.0
4313773.0,139143152.0,137590256.0
4312967.0,139183440.0,137618464.0
4323443.0,139168944.0,137556416.0
4321025.5,139101248.0,137571728.0
4316996.5,139074656.0,137558832.0
4308132.0,139116560.0,137591872.0
4312161.0,139098832.0,137529824.0
4315384.5,139131872.0,137553184.0
4313773.0,139087552.0,137571728.0
4308937.5,139092384.0,137521760.0
4321025.5,139083520.0,137475824.0
4321831.5,139141536.0,137483888.0
4320220.0,139127840.0,137511280.0
4327472.5,139144768.0,137515312.0
4321025.5,139179408.0,137494352.0
4322637.5,139206816.0,137515312.0
4321831.5,139203584.0,137508864.0
4314579.0,139183440.0,137486304.0
4313773.0,139181024.0,137470176.0
4320220.0,139209232.0,137493552.0
4328278.5,139247104.0,137519344.0
4321025.5,139222128.0,137495968.0
4320220.0,139284176.0,137534656.0
4329084.0,139199568.0,137524176.0
4325055.0,139273696.0,137516112.0
4330696.0,139233408.0,137529824.0
4319414.0,139188272.0,137500800.0
4331502.0,139140736.0,137420224.0
4314579.0,139019856.0,137421824.0
4311355.5,139002128.0,137442784.0
4304102.5,138919120.0,137365424.0
4304908.5,138898976.0,137342048.0
4295238.0,138882048.0,137353328.0
4294432.0,138828864.0,137296112.0
4290403.0,138824032.0,137236480.0
4293626.5,138819200.0,137238896.0
4289597.0,138782128.0,137239712.0
4296044.0,138811136.0,137207472.0
4287985.5,138815168.0,137205856.0
4277509.0,138820800.0,137128496.0
4275091.5,138798240.0,137101104.0
4285568.0,138740224.0,137076112.0
4275897.5,138794208.0,137090624.0
4268644.5,138728944.0,137077728.0
4269450.5,138724096.0,137054352.0
4267839.0,138689456.0,137095456.0
4276703.5,138740224.0,137130912.0
4277509.0,138735392.0,137092240.0
4275897.5,138747472.0,137114800.0
4263809.5,138791792.0,137143008.0
4272674.0,138761168.0,137012448.0
4270256.5,138764400.0,137012448.0
4269450.5,138800656.0,137064832.0
4270256.5,138774864.0,136999568.0
4271062.5,138743440.0,136972960.0
4261392.0,138761168.0,136895600.0
4256557.0,138728128.0,136884320.0
4254139.0,138703152.0,136850480.0
4244469.0,138725712.0,136775536.0
4244469.0,138681392.0,136697360.0
4243663.0,138700736.0,136747328.0
4238828.0,138754720.0,136805344.0
4235604.5,138818384.0,136837584.0
4246080.5,138832896.0,136835968.0
4253333.5,138866736.0,136876256.0
4259780.0,138807104.0,137017296.0
4261392.0,138857872.0,137091424.0
4272674.0,138806304.0,137127696.0
4268644.5,138778896.0,137172016.0
4285568.0,138730544.0,137181680.0
4279121.0,138724912.0,137176848.0
4276703.5,138707184.0,137136560.0
4275091.5,138707984.0,137149456.0
4287179.5,138695904.0,137145424.0
4270256.5,138743440.0,137170400.0
4272674.0,138741824.0,137170400.0
4279121.0,138732960.0,137126080.0
4277509.0,138724912.0,137134144.0
4271062.5,138791792.0,137163952.0
4273480.0,138796624.0,137176848.0
4274285.5,138749088.0,137143808.0
4283150.0,138784544.0,137138176.0
4278315.0,138782928.0,137111568.0
4273480.0,138797440.0,137116416.0
4278315.0,138778096.0,137169600.0
4274285.5,138782128.0,137131728.0
4278315.0,138772448.0,137164768.0
4279926.5,138783744.0,137192960.0
4281538.5,138802272.0,137198608.0
4279926.5,138803072.0,137201824.0
4281538.5,138840144.0,137227616.0
4285568.0,138820000.0,137172016.0
4292820.5,138892528.0,137205056.0
4291209.0,138874000.0,137206672.0
4283956.0,138918320.0,137205056.0
4295238.0,138880432.0,137271936.0
4295238.0,138932016.0,137251792.0
4297655.5,138963440.0,137267104.0
4302491.0,138999712.0,137253408.0
4296850.0,138951360.0,137261472.0
4297655.5,139022272.0,137233264.0
4298461.5,139044832.0,137230848.0
4300879.0,138998096.0,137271136.0
4297655.5,139045648.0,137269520.0
4299267.5,139015024.0,137248576.0
4294432.0,138921536.0,137277584.0
4297655.5,138820000.0,137224400.0
4294432.0,138771648.0,137188128.0
4294432.0,138721680.0,137197808.0
4294432.0,138758752.0,137225200.0
4286373.5,138716048.0,137171216.0
4290403.0,138689456.0,137180080.0
4291209.0,138637872.0,137163952.0
4281538.5,138637872.0,137189744.0
4287179.5,138670912.0,137183296.0
4285568.0,138662048.0,137176048.0
4280732.5,138665280.0,137188128.0
4280732.5,138691872.0,137152672.0
4297655.5,138670112.0,137139776.0
4294432.0,138732160.0,137172016.0
4297655.5,138713632.0,137158320.0
4300073.5,138695904.0,137186528.0
4291209.0,138715232.0,137188128.0
4296044.0,138706368.0,137184096.0
4292014.5,138732160.0,137183296.0
4296044.0,138662864.0,137169600.0
4290403.0,138728944.0,137108352.0
4303296.5,138723296.0,137180880.0
4296850.0,138712016.0,137196192.0
4291209.0,138749088.0,137186528.0
4291209.0,138715232.0,137181680.0
4294432.0,138777296.0,137177648.0
4291209.0,138812752.0,137215536.0
4296850.0,138793408.0,137189744.0
4305714.5,138843376.0,137219568.0
4300879.0,138849824.0,137226816.0
4308937.5,138874000.0,137236480.0
4303296.5,138859488.0,137240512.0
4311355.5,138820800.0,137274352.0
4303296.5,138915088.0,137277584.0
4308937.5,138944912.0,137267104.0
4304908.5,138940880.0,137261472.0
4308132.0,138977952.0,137274352.0
4307326.0,138947328.0,137235680.0
4302491.0,138924768.0,137280000.0
4301685.0,138840960.0,137222784.0
4299267.5,138797440.0,137221168.0
4296044.0,138679776.0,137237296.0
4286373.5,138683808.0,137225200.0
4284762.0,138624976.0,137180880.0
4288791.0,138662048.0,137183296.0
4286373.5,138620960.0,137200224.0
4265421.0,138659632.0,137176048.0
4283150.0,138644320.0,137182496.0
4284762.0,138600000.0,137189744.0
4277509.0,138642704.0,137225200.0
4285568.0,138586304.0,137175232.0
4285568.0,138630624.0,137147840.0
4285568.0,138684608.0,137173632.0
4286373.5,138660432.0,137204256.0
4286373.5,138694288.0,137203440.0
4287179.5,138675744.0,137200224.0
4287179.5,138657216.0,137180880.0
4286373.5,138680592.0,137255824.0
4285568.0,138611280.0,137155088.0
4277509.0,138700736.0,137213920.0
4287985.5,138705568.0,137212304.0
4280732.5,138680592.0,137211504.0
4283150.0,138731360.0,137198608.0
4283956.0,138781312.0,137209088.0
4283150.0,138735392.0,137255824.0
4287179.5,138758752.0,137235680.0
4283150.0,138784544.0,137263888.0
4289597.0,138768432.0,137271936.0
4293626.5,138803072.0,137279200.0
4287985.5,138795824.0,137271936.0
4286373.5,138776480.0,137255824.0
4283150.0,138861104.0,137304176.0
4288791.0,138848208.0,137244544.0
4293626.5,138878016.0,137259856.0
4288791.0,138874800.0,137308208.0
4294432.0,138902192.0,137275168.0
4299267.5,138920736.0,137307392.0
4290403.0,138901392.0,137264688.0
4296850.0,138923152.0,137309824.0
4291209.0,138928784.0,137292896.0
4286373.5,138902192.0,137328352.0
4281538.5,138806304.0,137284032.0
4284762.0,138782928.0,137255824.0
4279121.0,138721680.0,137262272.0
4269450.5,138609664.0,137213920.0
4277509.0,138613696.0,137266304.0
4271062.5,138596784.0,137296112.0
4268644.5,138614512.0,137286448.0
4276703.5,138609664.0,137230848.0
4275091.5,138571792.0,137272752.0
4269450.5,138583888.0,137239712.0
4267839.0,138551648.0,137214720.0
4258168.5,138587920.0,137236480.0
4263809.5,138626592.0,137274352.0
4270256.5,138599200.0,137257440.0
4263809.5,138616928.0,137235680.0
4269450.5,138593552.0,137237296.0
4258974.5,138615312.0,137268720.0
4264615.5,138591936.0,137271136.0
4268644.5,138622560.0,137246960.0
4263809.5,138615312.0,137230032.0
4263809.5,138618528.0,137267920.0
4253333.5,138616928.0,137286448.0
4260586.0,138612896.0,137266304.0
4259780.0,138670112.0,137257440.0
4265421.0,138606448.0,137246160.0
4258974.5,138655600.0,137270336.0
4257362.5,138660432.0,137292896.0
4255751.0,138666080.0,137285648.0
4250110.0,138691056.0,137303376.0
4262198.0,138701536.0,137284832.0
4262198.0,138700736.0,137324320.0
4255751.0,138724912.0,137280800.0
4258168.5,138756336.0,137283216.0
4267839.0,138725712.0,137259040.0
4258168.5,138777296.0,137306592.0
4260586.0,138745056.0,137281616.0
4261392.0,138795824.0,137333184.0
4265421.0,138849824.0,137312240.0
4259780.0,138832080.0,137353328.0
4266227.0,138903808.0,137294512.0
4269450.5,138903008.0,137325136.0
4265421.0,138896560.0,137367040.0
4263809.5,138904608.0,137380736.0
4268644.5,138988432.0,137376704.0
4269450.5,138954576.0,137376704.0
4262198.0,138911056.0,137387984.0
4259780.0,138873184.0,137371872.0
4259780.0,138818384.0,137359776.0
4252527.5,138666080.0,137281616.0
4249304.0,138629824.0,137313040.0
4256557.0,138617728.0,137300960.0
4237216.0,138573408.0,137273552.0
4250916.0,138587104.0,137298528.0
4246080.5,138565344.0,137312240.0
4239633.5,138529088.0,137338832.0
4236410.5,138516192.0,137313840.0
4242857.0,138504096.0,137231648.0
4237216.0,138430768.0,137213920.0
4236410.5,138516992.0,137252608.0
4231575.0,138533120.0,137304976.0
4241245.5,138541984.0,137226816.0
4236410.5,138541984.0,137267104.0
4234798.5,138524256.0,137240512.0
4233187.0,138533120.0,137283216.0
4237216.0,138503296.0,137217952.0
4233992.5,138524256.0,137269520.0
4232381.0,138468640.0,137226000.0
4227546.0,138501680.0,137233264.0
4239633.5,138539568.0,137282416.0
4236410.5,138507328.0,137273552.0
4234798.5,138541984.0,137188944.0
4230769.0,138543584.0,137230848.0
4230769.0,138579856.0,137230848.0
4233187.0,138585488.0,137264688.0
4230769.0,138535536.0,137260656.0
4228351.5,138548432.0,137231648.0
4232381.0,138613696.0,137342864.0
4232381.0,138643520.0,137263888.0
4226740.0,138641904.0,137275968.0
4226740.0,138673328.0,137311424.0
4234798.5,138633840.0,137275968.0
4234798.5,138677360.0,137297728.0
4234798.5,138723296.0,137330768.0
4235604.5,138720080.0,137306592.0
4241245.5,138770848.0,137338016.0
4241245.5,138766816.0,137318688.0
4241245.5,138760368.0,137327552.0
4238022.0,138763584.0,137320288.0
4234798.5,138828064.0,137341248.0
4245274.5,138799856.0,137300144.0
4243663.0,138862704.0,137337216.0
4246080.5,138885280.0,137392016.0
4239633.5,138874000.0,137316256.0
4250110.0,138903808.0,137363008.0
4242051.5,138901392.0,137325936.0
4236410.5,138933632.0,137381536.0
4236410.5,138862704.0,137357360.0
4238022.0,138783744.0,137312240.0
4231575.0,138756336.0,137363008.0
4238828.0,138615312.0,137318688.0
4226740.0,138594352.0,137318688.0
4228351.5,138565344.0,137294512.0
4228351.5,138540368.0,137256624.0
4232381.0,138495232.0,137261472.0
4235604.5,138500880.0,137236480.0
4229963.5,138492816.0,137249376.0
4225128.0,138496848.0,137254208.0
4229963.5,138495232.0,137287248.0
4217875.5,138479120.0,137242128.0
4212234.5,138477504.0,137183296.0
4224322.5,138499264.0,137252608.0
4214652.0,138533120.0,137248576.0
4214652.0,138526672.0,137230032.0
4218681.5,138479920.0,137192960.0
4218681.5,138421904.0,137161536.0
4214652.0,138506528.0,137259856.0
4220293.0,138466224.0,137234064.0
4224322.5,138496848.0,137250992.0
4217875.5,138471872.0,137265488.0
4216263.5,138499264.0,137234064.0
4219487.0,138516992.0,137242928.0
4209817.0,138530688.0,137260656.0
4217069.5,138541168.0,137215536.0
4213040.5,138551648.0,137261472.0
4228351.5,138515392.0,137280800.0
4217875.5,138547616.0,137188944.0
4225934.0,138541984.0,137266304.0
4223516.5,138605648.0,137235680.0
4225128.0,138595168.0,137216336.0
4220293.0,138608064.0,137272752.0
4222710.5,138603216.0,137215536.0
4225128.0,138608064.0,137217952.0
4225128.0,138675744.0,137211504.0
4224322.5,138700736.0,137255824.0
4230769.0,138674144.0,137287248.0
4224322.5,138702352.0,137267104.0
4228351.5,138705568.0,137275968.0
4233992.5,138745056.0,137246960.0
4238828.0,138740224.0,137280800.0
4235604.5,138749888.0,137292896.0
4242051.5,138778096.0,137308208.0
4247692.5,138793408.0,137304176.0
4241245.5,138836928.0,137301760.0
4249304.0,138839344.0,137371056.0
4248498.0,138860288.0,137347696.0
4258974.5,138920736.0,137399264.0
4252527.5,138908640.0,137330768.0
4263809.5,138965056.0,137383152.0
4250110.0,138895744.0,137389600.0
4252527.5,138944096.0,137446000.0
4258168.5,138849824.0,137387184.0
4250110.0,138875600.0,137397648.0
4237216.0,138736992.0,137365424.0
4241245.5,138662864.0,137325936.0
4242857.0,138612080.0,137343664.0
4241245.5,138607248.0,137300144.0
4238022.0,138591136.0,137264688.0
4238022.0,138564544.0,137283216.0
4242051.5,138598384.0,137280800.0
4228351.5,138576624.0,137310624.0
4228351.5,138612080.0,137342048.0
4231575.0,138545200.0,137264688.0
4224322.5,138551648.0,137295312.0
4224322.5,138587104.0,137290480.0
4232381.0,138608864.0,137272752.0
4229963.5,138628208.0,137280000.0
4229963.5,138599200.0,137288864.0
4229963.5,138581472.0,137275968.0
4235604.5,138574208.0,137294512.0
4229963.5,138595968.0,137299344.0
4234798.5,138556480.0,137321904.0
4229963.5,138591936.0,137255024.0
4236410.5,138578240.0,137281616.0
4225934.0,138570176.0,137310624.0
4229157.5,138600000.0,137289664.0
4227546.0,138631424.0,137292080.0
4226740.0,138609664.0,137334000.0
4229157.5,138637072.0,137288864.0
4225128.0,138689456.0,137261472.0
4239633.5,138680592.0,137316256.0
4228351.5,138683008.0,137271936.0
4234798.5,138673328.0,137361392.0
4234798.5,138725712.0,137366224.0
4242857.0,138746672.0,137313840.0
4235604.5,138743440.0,137313840.0
4234798.5,138753120.0,137357360.0
4235604.5,138749888.0,137354144.0
4240439.5,138799040.0,137395232.0
4241245.5,138833696.0,137383952.0
4244469.0,138812752.0,137352528.0
4242051.5,138833696.0,137395232.0
4246080.5,138834512.0,137367840.0
4240439.5,138865936.0,137363808.0
4245274.5,138907040.0,137452448.0
4246080.5,138882864.0,137393632.0
4249304.0,138860288.0,137437952.0
4245274.5,138914288.0,137383152.0
4250110.0,138951360.0,137379920.0
4251721.5,138968272.0,137407328.0
4256557.0,138962640.0,137479856.0
4250916.0,139028720.0,137441168.0
4257362.5,138977136.0,137459712.0
4257362.5,139009376.0,137492752.0
4253333.5,139028720.0,137522560.0
4249304.0,138958608.0,137470176.0
4242051.5,138903008.0,137446000.0
4242051.5,138837728.0,137415392.0
4242857.0,138718464.0,137423440.0
4241245.5,138727328.0,137377504.0
4241245.5,138721680.0,137364608.0
4240439.5,138683008.0,137401680.0
4241245.5,138695088.0,137367040.0
4238022.0,138695904.0,137388784.0
4235604.5,138638688.0,137371056.0
4229157.5,138685424.0,137394432.0
4230769.0,138737808.0,137383952.0
4233187.0,138749088.0,137397648.0
4230769.0,138728128.0,137374288.0
4231575.0,138749088.0,137438752.0
4244469.0,138761984.0,137354944.0
4233992.5,138747472.0,137379120.0
4233992.5,138727328.0,137417808.0
4238022.0,138712816.0,137357360.0
4237216.0,138740224.0,137400880.0
4235604.5,138704768.0,137409744.0
4240439.5,138705568.0,137407328.0
4240439.5,138729744.0,137439568.0
4234798.5,138711216.0,137367040.0
4225934.0,138703152.0,137412160.0
4233992.5,138757952.0,137354144.0
4230769.0,138808720.0,137433920.0
4235604.5,138776480.0,137367840.0
4238022.0,138815168.0,137410544.0
4243663.0,138768432.0,137461312.0
4242857.0,138826448.0,137487104.0
4241245.5,138833696.0,137411360.0
4241245.5,138853840.0,137421024.0
4250916.0,138877216.0,137481472.0
4244469.0,138919920.0,137447616.0
4245274.5,138939264.0,137436336.0
4248498.0,138927184.0,137482272.0
4244469.0,138939264.0,137512080.0
4248498.0,138956192.0,137454064.0
4250110.0,138998896.0,137494352.0
4247692.5,138990848.0,137488720.0
4252527.5,139007760.0,137532240.0
4250916.0,139065792.0,137530624.0
4253333.5,139034352.0,137529824.0
4248498.0,139026304.0,137529824.0
4254945.0,139098016.0,137514512.0
4258974.5,139081904.0,137571728.0
4256557.0,139110912.0,137574144.0
4263003.5,139152016.0,137573328.0
4259780.0,139190688.0,137583808.0
4264615.5,139146368.0,137582192.0
4262198.0,139232608.0,137581392.0
4263003.5,139152016.0,137583808.0
4261392.0,139079488.0,137588640.0
4255751.0,139066592.0,137564464.0
4262198.0,138958608.0,137563664.0
4262198.0,138933632.0,137560432.0
4244469.0,138890112.0,137543520.0
4256557.0,138889312.0,137610400.0
4243663.0,138837728.0,137557216.0
4245274.5,138868352.0,137521760.0
4246886.5,138848208.0,137500800.0
4248498.0,138844976.0,137577360.0
4242051.5,138863520.0,137510480.0
4247692.5,138898176.0,137536256.0
4246886.5,138915088.0,137594288.0
4247692.5,138912672.0,137565280.0
4245274.5,138918320.0,137524176.0
4253333.5,138965056.0,137562864.0
4258974.5,138977952.0,137544320.0
4250110.0,138956992.0,137574944.0
4254139.0,138957808.0,137600736.0
4253333.5,138862704.0,137587840.0
4249304.0,138944096.0,137549152.0
4249304.0,138949744.0,137565280.0
4254139.0,138926368.0,137600736.0
4247692.5,138985200.0,137600736.0
4252527.5,138940880.0,137570912.0
4251721.5,138896560.0,137519344.0
4257362.5,138986816.0,137574144.0
4246886.5,139014208.0,137590256.0
4254945.0,139013408.0,137618464.0
4255751.0,139019040.0,137587040.0
4254139.0,139049664.0,137605568.0
4250916.0,139064176.0,137630544.0
4263809.5,139073040.0,137622496.0
4256557.0,139075456.0,137704688.0
4251721.5,139173776.0,137600736.0
4260586.0,139135904.0,137696624.0
4267033.0,139110912.0,137667616.0
4259780.0,139185856.0,137674864.0
4254945.0,139224544.0,137711136.0
4266227.0,139205200.0,137665200.0
4264615.5,139262416.0,137726448.0
4270256.5,139206816.0,137744976.0
4274285.5,139263216.0,137692608.0
4277509.0,139282560.0,137732080.0
4282344.5,139285792.0,137750624.0
4281538.5,139355904.0,137766736.0
4295238.0,139284976.0,137769968.0
4276703.5,139359920.0,137769968.0
4284762.0,139384912.0,137767552.0
4281538.5,139425200.0,137750624.0
4281538.5,139405056.0,137798176.0
4279121.0,139419568.0,137773184.0
4277509.0,139328496.0,137783664.0
4277509.0,139294656.0,137769152.0
4277509.0,139207616.0,137766736.0
4278315.0,139122192.0,137732896.0
4272674.0,139094000.0,137674064.0
4263003.5,139102048.0,137728064.0
4272674.0,139020656.0,137678896.0
4273480.0,139028720.0,137653920.0
4271062.5,139057728.0,137644256.0
4269450.5,139069008.0,137661168.0
4268644.5,139056112.0,137673264.0
4266227.0,139071424.0,137702272.0
4275091.5,139131872.0,137681312.0
4279121.0,139110112.0,137667616.0
4277509.0,139145568.0,137686960.0
4287179.5,139141536.0,137671648.0
4282344.5,139173776.0,137692608.0
4280732.5,139131056.0,137675680.0
4278315.0,139185856.0,137773184.0
4280732.5,139165712.0,137718384.0
4276703.5,139148784.0,137711936.0
4280732.5,139185056.0,137721616.0
4290403.0,139152016.0,137690176.0
4283150.0,139143952.0,137756256.0
4287985.5,139153632.0,137746592.0
4279926.5,139117360.0,137736928.0
4279926.5,139193120.0,137745792.0
4287179.5,139260800.0,137697440.0
4287985.5,139224544.0,137722416.0
4293626.5,139239856.0,137749824.0
4283956.0,139316416.0,137751424.0
4296044.0,139278528.0,137783664.0
4287179.5,139303520.0,137785280.0
4300073.5,139251136.0,137750624.0
4296850.0,139334944.0,137785280.0
4300073.5,139375232.0,137793328.0
4296850.0,139383296.0,137795744.0
4308132.0,139385712.0,137835232.0
4308132.0,139401824.0,137773184.0
4308937.5,139413920.0,137827984.0
4305714.5,139467920.0,137836048.0
4307326.0,139480000.0,137848944.0
4318608.0,139456624.0,137856992.0
4316190.5,139453408.0,137822352.0
4324249.0,139539632.0,137794144.0
4320220.0,139492896.0,137807040.0
4329084.0,139554144.0,137828784.0
4326666.5,139571872.0,137858608.0
4325055.0,139595232.0,137918240.0
4329084.0,139571056.0,137848944.0
4326666.5,139538016.0,137831216.0
4324249.0,139576704.0,137835232.0
4318608.0,139438896.0,137796560.0
4312161.0,139416336.0,137865056.0
4321831.5,139280144.0,137819120.0
4316996.5,139284176.0,137802192.0
4316996.5,139249520.0,137784464.0
4316190.5,139197952.0,137737728.0
4311355.5,139222128.0,137804608.0
4319414.0,139163296.0,137772384.0
4310549.5,139289824.0,137740960.0
4312967.0,139255968.0,137776416.0
4310549.5,139316416.0,137733696.0
4317802.0,139321248.0,137782864.0
4321025.5,139327696.0,137734512.0
4319414.0,139348640.0,137778016.0
4324249.0,139357504.0,137802192.0
4321831.5,139379264.0,137768352.0
4320220.0,139348640.0,137744176.0
4318608.0,139314800.0,137775600.0
4321025.5,139315600.0,137749824.0
4313773.0,139348640.0,137768352.0
4325861.0,139281760.0,137724832.0
4321025.5,139291424.0,137720800.0
4308937.5,139236624.0,137631360.0
4327472.5,139264832.0,137670848.0
4319414.0,139254352.0,137590256.0
4325055.0,139265648.0,137595088.0
4320220.0,139261616.0,137591872.0
4330696.0,139253552.0,137618464.0
4319414.0,139290624.0,137621680.0
4314579.0,139291424.0,137620880.0
4318608.0,139315600.0,137588640.0
4308937.5,139326080.0,137596704.0
4320220.0,139374432.0,137666816.0
4315384.5,139387328.0,137638608.0
4324249.0,139426816.0,137678096.0
4325055.0,139396992.0,137748208.0
4328278.5,139385712.0,137717584.0
4325055.0,139473552.0,137703072.0
4338754.5,139500144.0,137744976.0
4348425.0,139542048.0,137742560.0
4341172.0,139511424.0,137777216.0
4339560.5,139570256.0,137786880.0
4346007.5,139585568.0,137777216.0
4346007.5,139633920.0,137812672.0
4348425.0,139586368.0,137811872.0
4353260.0,139600880.0,137808640.0
4354066.0,139544464.0,137797360.0
4354066.0,139480800.0,137751424.0
4347619.0,139384096.0,137755456.0
4347619.0,139322864.0,137748208.0
4346007.5,139305136.0,137725648.0
4346813.0,139251936.0,137725648.0
4341978.0,139192304.0,137670848.0
4341172.0,139246304.0,137670032.0
4334725.5,139248720.0,137692608.0
4340366.5,139251936.0,137666000.0
4336337.0,139282560.0,137659568.0
4339560.5,139244688.0,137679712.0
4337948.5,139272896.0,137698240.0
4335531.0,139288208.0,137664400.0
4339560.5,139330912.0,137697440.0
4340366.5,139353472.0,137713552.0
4342784.0,139310768.0,137675680.0
4337143.0,139368784.0,137703888.0
4336337.0,139315600.0,137670848.0
4338754.5,139293040.0,137645056.0
4338754.5,139314800.0,137690992.0
4341978.0,139347840.0,137651504.0
4339560.5,139318832.0,137765936.0
4349231.0,139325280.0,137697440.0
4341978.0,139359920.0,137707920.0
4337143.0,139340592.0,137720800.0
4343589.5,139379264.0,137716784.0
4347619.0,139347840.0,137703072.0
4346007.5,139392160.0,137685344.0
4345201.5,139392960.0,137710336.0
4353260.0,139422784.0,137685344.0
4350036.5,139426000.0,137706304.0
4357289.5,139405856.0,137682128.0
4351648.5,139465488.0,137666816.0
4348425.0,139465488.0,137677296.0
4353260.0,139446160.0,137716784.0
4346813.0,139477584.0,137752240.0
4358095.0,139484032.0,137700656.0
4353260.0,139491280.0,137685344.0
4354872.0,139498528.0,137699040.0
4350842.5,139528352.0,137721616.0
4358095.0,139558976.0,137676480.0
4359707.0,139623440.0,137706304.0
4349231.0,139565424.0,137682928.0
4355677.5,139540432.0,137734512.0
4350842.5,139472752.0,137730480.0
4344395.5,139384912.0,137711936.0
4346007.5,139289824.0,137638608.0
4338754.5,139235024.0,137665200.0
4342784.0,139170544.0,137614432.0
4338754.5,139118176.0,137562864.0
4335531.0,139138320.0,137613632.0
4337143.0,139109312.0,137601536.0
4332307.5,139125424.0,137548352.0
4338754.5,139051280.0,137518528.0
4340366.5,139085936.0,137520144.0
4333919.5,139068208.0,137556416.0
4339560.5,139089968.0,137549968.0
4333919.5,139109312.0,137528208.0
4341978.0,139147984.0,137545936.0
4344395.5,139124608.0,137509664.0
4336337.0,139130256.0,137487104.0
4339560.5,139111728.0,137557216.0
4333919.5,139071424.0,137533840.0
4341172.0,139119776.0,137479040.0
4340366.5,139055312.0,137529824.0
4342784.0,139043216.0,137512896.0
4342784.0,139031136.0,137538688.0
4337948.5,139019040.0,137458896.0
4335531.0,139056928.0,137508864.0
4333919.5,139038384.0,137450848.0
4337948.5,139087552.0,137475824.0
4345201.5,139077072.0,137482272.0
4337948.5,139081104.0,137531424.0
4338754.5,139122192.0,137452448.0
4341172.0,139098832.0,137506448.0
4342784.0,139118176.0,137493552.0
4336337.0,139153632.0,137495968.0
4335531.0,139156848.0,137499200.0
4341172.0,139162496.0,137470992.0
4346813.0,139158464.0,137528208.0
4341172.0,139170544.0,137516112.0
4342784.0,139166528.0,137482272.0
4341172.0,139245488.0,137551568.0
4342784.0,139268064.0,137494352.0
4350036.5,139223744.0,137479856.0
4344395.5,139203584.0,137480656.0
4346813.0,139168944.0,137452448.0
4328278.5,139132672.0,137517728.0
4333113.5,139067392.0,137489520.0
4325861.0,138904608.0,137388784.0
4320220.0,138837728.0,137365424.0
4324249.0,138832080.0,137379920.0
4318608.0,138764400.0,137387184.0
4325055.0,138748272.0,137358176.0
4319414.0,138768432.0,137348496.0
4326666.5,138769232.0,137292896.0
4316996.5,138729744.0,137331568.0
4315384.5,138713632.0,137336416.0
4313773.0,138736992.0,137297728.0
4323443.0,138745056.0,137307392.0
4316190.5,138762784.0,137338832.0
4313773.0,138800656.0,137304976.0
4312967.0,138736992.0,137273552.0
4317802.0,138756336.0,137276784.0
4320220.0,138705568.0,137310624.0
4315384.5,138720080.0,137266304.0
4314579.0,138666080.0,137240512.0
4320220.0,138704768.0,137256624.0
4311355.5,138670912.0,137300960.0
4318608.0,138653184.0,137303376.0
4313773.0,138670112.0,137256624.0
4310549.5,138709600.0,137213920.0
4310549.5,138709600.0,137250992.0
4313773.0,138744256.0,137292080.0
4312967.0,138736992.0,137227616.0
4316190.5,138741024.0,137293696.0
4325861.0,138761984.0,137250176.0
4333113.5,138792608.0,137294512.0
4322637.5,138791792.0,137304176.0
4328278.5,138752304.0,137214720.0
4329084.0,138736992.0,137297728.0
4329084.0,138829664.0,137272752.0
4325055.0,138840960.0,137274352.0
4317802.0,138865136.0,137242928.0
4333919.5,138879632.0,137285648.0
4333113.5,138883664.0,137268720.0
4328278.5,138875600.0,137275168.0
4328278.5,138893328.0,137318688.0
4336337.0,138844176.0,137292080.0
4334725.5,138821616.0,137222784.0
4327472.5,138688640.0,137292080.0
4328278.5,138604832.0,137240512.0
4316996.5,138529888.0,137189744.0
4316190.5,138481536.0,137162352.0
4316190.5,138475088.0,137171216.0
4308132.0,138359040.0,137167184.0
4307326.0,138430768.0,137163952.0
4302491.0,138413840.0,137139776.0
4296044.0,138418688.0,137141392.0
4306520.0,138407392.0,137067248.0
4315384.5,138417072.0,137162352.0
4302491.0,138429152.0,137096256.0
4302491.0,138425936.0,137149456.0
4300073.5,138418688.0,137106736.0
4296044.0,138402560.0,137113184.0
4299267.5,138467840.0,137160736.0
4300879.0,138413840.0,137094656.0
4299267.5,138402560.0,137084976.0
4300879.0,138404976.0,137121248.0
4300879.0,138369520.0,137092240.0
4298461.5,138403376.0,137084176.0
4300879.0,138419488.0,137099488.0
4302491.0,138388064.0,137073696.0
4296850.0,138368720.0,137111568.0
4305714.5,138400960.0,137134144.0
4302491.0,138445280.0,137100288.0
4311355.5,138384832.0,137076112.0
4301685.0,138450912.0,137101904.0
4303296.5,138436416.0,137147840.0
4313773.0,138473472.0,137103520.0
4304908.5,138498464.0,137184912.0
4310549.5,138525056.0,137144608.0
4314579.0,138515392.0,137089008.0
4308937.5,138522640.0,137136560.0
4308937.5,138569376.0,137160736.0
4307326.0,138620960.0,137170400.0
4308132.0,138603216.0,137155088.0
4316996.5,138587104.0,137180080.0
4308937.5,138652384.0,137158320.0
4310549.5,138611280.0,137163952.0
4306520.0,138593552.0,137157504.0
4300879.0,138470256.0,137162352.0
4295238.0,138391280.0,137143808.0
4292820.5,138287328.0,137100288.0
4298461.5,138311504.0,137097872.0
4295238.0,138202704.0,137084176.0
4293626.5,138227696.0,137088208.0
4282344.5,138193040.0,137051136.0
4292820.5,138176928.0,137036624.0
4289597.0,138173696.0,137002784.0
4283150.0,138158384.0,137022928.0
4276703.5,138184176.0,137047920.0
4288791.0,138170480.0,137050336.0
4285568.0,138143072.0,136997952.0
4282344.5,138181760.0,137018096.0
4286373.5,138197872.0,137067248.0
4285568.0,138182560.0,137002784.0
4285568.0,138172896.0,137019712.0
4284762.0,138164832.0,137064832.0
4292014.5,138176112.0,137029376.0
4299267.5,138136624.0,137029376.0
4278315.0,138171280.0,137018096.0
4287985.5,138153552.0,137004400.0
4290403.0,138158384.0,136997952.0
4275897.5,138157584.0,136991504.0
4296044.0,138187392.0,137050336.0
4284762.0,138214800.0,137017296.0
4288791.0,138200288.0,137059200.0
4286373.5,138260736.0,137046304.0
4298461.5,138193040.0,137002784.0
4294432.0,138251056.0,137072896.0
4300073.5,138267184.0,137091424.0
4297655.5,138285712.0,137066448.0
4309743.5,138289744.0,137099488.0
4300073.5,138352608.0,137107552.0
4300879.0,138317136.0,137077728.0
4296044.0,138364688.0,137102704.0
4299267.5,138351792.0,137110768.0
4303296.5,138403376.0,137088208.0
4308132.0,138410624.0,137113184.0
4302491.0,138416256.0,137113184.0
4300073.5,138364688.0,137096256.0
4300073.5,138318752.0,137060800.0
4295238.0,138195456.0,137068064.0
4284762.0,138138240.0,137072080.0
4285568.0,138089088.0,137043888.0
4293626.5,138043152.0,137069664.0
4282344.5,138049600.0,136997952.0
4282344.5,138033472.0,137043072.0
4277509.0,138016560.0,137022128.0
4284762.0,138048784.0,137032608.0
4286373.5,138016560.0,137044688.0
4282344.5,137942416.0,137031792.0
4285568.0,137988352.0,137024544.0
4289597.0,137986736.0,137010848.0
4286373.5,138001248.0,137089008.0
4282344.5,138036704.0,137036624.0
4292014.5,137994000.0,137034208.0
4289597.0,137979488.0,137045488.0
4300073.5,138014144.0,136978608.0
4287179.5,138050400.0,137035824.0
4289597.0,138062496.0,137090624.0
4291209.0,138020592.0,137042272.0
4293626.5,138000432.0,137053552.0
4291209.0,138035088.0,137092240.0
4294432.0,138057648.0,137077728.0
4286373.5,138066528.0,137058384.0
4288791.0,138097136.0,137118016.0
4288791.0,138118896.0,137064832.0
4288791.0,138123744.0,137130112.0
4292820.5,138121312.0,137093040.0
4294432.0,138168864.0,137077728.0
4293626.5,138166448.0,137075312.0
4296044.0,138180144.0,137131728.0
4289597.0,138209152.0,137172016.0
4290403.0,138241392.0,137155088.0
4290403.0,138238176.0,137148640.0
4285568.0,138305056.0,137134944.0
4290403.0,138253472.0,137149456.0
4293626.5,138296192.0,137155904.0
4292820.5,138238176.0,137136560.0
4292014.5,138346960.0,137146224.0
4296044.0,138317136.0,137166368.0
4293626.5,138288128.0,137201024.0
4283956.0,138255088.0,137184912.0
4287985.5,138169664.0,137190544.0
4271868.0,138093120.0,137138976.0
4277509.0,138031056.0,137141392.0
4276703.5,138014144.0,137118832.0
4267033.0,138013328.0,137150256.0
4261392.0,138002048.0,137129312.0
4265421.0,137944832.0,137070480.0
4262198.0,137920656.0,137066448.0
4258974.5,137900512.0,137117216.0
4258168.5,137914208.0,137083376.0
4256557.0,137906960.0,137083376.0
4264615.5,137942416.0,137065648.0
4254139.0,137906960.0,137088208.0
4263003.5,137930336.0,137029376.0
4271062.5,137914208.0,137061616.0
4259780.0,137935968.0,137121248.0
4262198.0,137965792.0,137147040.0
4258168.5,137935168.0,137088208.0
4263809.5,137941616.0,137107552.0
4256557.0,137998016.0,137126080.0
4260586.0,137977872.0,137086592.0
4260586.0,137951280.0,137123664.0
4259780.0,137981904.0,137082560.0
4255751.0,137989152.0,137184912.0
4263003.5,138018976.0,137191360.0
4259780.0,138035904.0,137081760.0
4254139.0,138005280.0,137100288.0
4266227.0,138056848.0,137118832.0
4259780.0,138058464.0,137101104.0
4263003.5,138107616.0,137154288.0
4265421.0,138110848.0,137176048.0
4258974.5,138144688.0,137146224.0
4264615.5,138163216.0,137125280.0
4269450.5,138191424.0,137155088.0
4262198.0,138180144.0,137230032.0
4270256.5,138150336.0,137222784.0
4263003.5,138258320.0,137221168.0
4263809.5,138234944.0,137167184.0
4263003.5,138287328.0,137274352.0
4272674.0,138266368.0,137190544.0
4266227.0,138334864.0,137220368.0
4268644.5,138276048.0,137250176.0
4265421.0,138310688.0,137210688.0
4263809.5,138334064.0,137263072.0
4259780.0,138378384.0,137248576.0
4263809.5,138321984.0,137252608.0
4252527.5,138274432.0,137250176.0
4246886.5,138168064.0,137249376.0
4250916.0,138064912.0,137196192.0
4249304.0,138049600.0,137205056.0
4254945.0,137995600.0,137230032.0
4252527.5,137973840.0,137147040.0
4258974.5,137969008.0,137173632.0
4236410.5,137977872.0,137205856.0
4237216.0,137964976.0,137181680.0
4241245.5,137963376.0,137137360.0
4237216.0,137902928.0,137160736.0
4229157.5,137923888.0,137159920.0
4240439.5,137930336.0,137143008.0
4229157.5,137919040.0,137148640.0
4237216.0,137977072.0,137153472.0
4239633.5,137933552.0,137128496.0
4239633.5,137922272.0,137129312.0
4235604.5,137975456.0,137133328.0
4226740.0,137946448.0,137198608.0
4236410.5,137969008.0,137145424.0
4232381.0,137950480.0,137184912.0
4231575.0,137940000.0,137128496.0
4228351.5,137939200.0,137167184.0
4232381.0,137946448.0,137138976.0
4237216.0,137956928.0,137088208.0
4234798.5,137982704.0,137184096.0
4224322.5,138027840.0,137182496.0
4236410.5,138041536.0,137194576.0
4231575.0,138052816.0,137180080.0
4225934.0,138064912.0,137174432.0
4224322.5,138110848.0,137161536.0
4232381.0,138141472.0,137229232.0
4229157.5,138164832.0,137203440.0
4227546.0,138152752.0,137245344.0
4229963.5,138153552.0,137186528.0
4238022.0,138169664.0,137189744.0
4229157.5,138206736.0,137180080.0
4233187.0,138246224.0,137237296.0
4229157.5,138199488.0,137231648.0
4240439.5,138277648.0,137238096.0
4236410.5,138280080.0,137248576.0
4246886.5,138276848.0,137292896.0
4237216.0,138292160.0,137300960.0
4241245.5,138334864.0,137244544.0
4246080.5,138374352.0,137221168.0
4237216.0,138370336.0,137282416.0
4252527.5,138340512.0,137263072.0
4252527.5,138407392.0,137266304.0
4245274.5,138401760.0,137240512.0
4235604.5,138443664.0,137267920.0
4238828.0,138391280.0,137260656.0
4242051.5,138342128.0,137248576.0
4233992.5,138326000.0,137284032.0
4235604.5,138199488.0,137255824.0
4238828.0,138160000.0,137207472.0
4228351.5,138140656.0,137201824.0
4232381.0,138121312.0,137179264.0
4229157.5,138113264.0,137194576.0
4217069.5,138101984.0,137218752.0
4224322.5,138068128.0,137191360.0
4226740.0,138044768.0,137175232.0
4221905.0,138069744.0,137185712.0
4219487.0,138054432.0,137164768.0
4217875.5,138037504.0,137169600.0
4220293.0,138075392.0,137170400.0
4225934.0,138069744.0,137173632.0
4214652.0,138078608.0,137135744.0
4223516.5,138101984.0,137191360.0
4217875.5,138092304.0,137074512.0
4219487.0,138127760.0,137168784.0
4216263.5,138085056.0,137198608.0
4214652.0,138117296.0,137192960.0
4215458.0,138114064.0,137230848.0
4223516.5,138081024.0,137181680.0
4220293.0,138065712.0,137169600.0
4221099.0,138143888.0,137206672.0
4227546.0,138151136.0,137189744.0
4223516.5,138160800.0,137185712.0
4229963.5,138128576.0,137163152.0
4220293.0,138185792.0,137140592.0
4225128.0,138160800.0,137208272.0
4220293.0,138225280.0,137218752.0
4222710.5,138250256.0,137226000.0
4223516.5,138255904.0,137185712.0
4225934.0,138315536.0,137199408.0
4221099.0,138305056.0,137197808.0
4228351.5,138270400.0,137140592.0
4224322.5,138314720.0,137171216.0
4220293.0,138347760.0,137247760.0
4232381.0,138361472.0,137230032.0
4224322.5,138406592.0,137230032.0
4226740.0,138413840.0,137234864.0
4221905.0,138388064.0,137263072.0
4231575.0,138425136.0,137211504.0
4229963.5,138452528.0,137262272.0
4228351.5,138496048.0,137249376.0
4232381.0,138481536.0,137252608.0
4238022.0,138487184.0,137280800.0
4241245.5,138498464.0,137273552.0
4233187.0,138515392.0,137313040.0
4242857.0,138579856.0,137269520.0
4235604.5,138588720.0,137296112.0
4234798.5,138618528.0,137341248.0
4233992.5,138581472.0,137268720.0
4242857.0,138602416.0,137315456.0
4242857.0,138528272.0,137262272.0
4237216.0,138474288.0,137298528.0
4240439.5,138339712.0,137255024.0
4235604.5,138308272.0,137213920.0
4227546.0,138299408.0,137245344.0
4240439.5,138253472.0,137217952.0
4231575.0,138289744.0,137190544.0
4232381.0,138267984.0,137196192.0
4232381.0,138218832.0,137207472.0
4230769.0,138270400.0,137201824.0
4226740.0,138260736.0,137210688.0
4220293.0,138305056.0,137180080.0
4232381.0,138337296.0,137205856.0
4226740.0,138276848.0,137226000.0
4231575.0,138254288.0,137191360.0
4223516.5,138337296.0,137201824.0
4233992.5,138282496.0,137211504.0
4230769.0,138304256.0,137198608.0
4238022.0,138298608.0,137184912.0
4232381.0,138245424.0,137192160.0
4240439.5,138289744.0,137164768.0
4229963.5,138298608.0,137155904.0
4238828.0,138238176.0,137172816.0
4230769.0,138309088.0,137157504.0
4231575.0,138316336.0,137187328.0
4235604.5,138363888.0,137168784.0
4227546.0,138389664.0,137158320.0
4231575.0,138373552.0,137216336.0
4235604.5,138430768.0,137243744.0
4229157.5,138410624.0,137222784.0
4225128.0,138448496.0,137191360.0
4229963.5,138423520.0,137215536.0
4236410.5,138469456.0,137246960.0
4242857.0,138456560.0,137213120.0
4231575.0,138495232.0,137256624.0
4239633.5,138535536.0,137242128.0
4221905.0,138574208.0,137255024.0
4233187.0,138566160.0,137304176.0
4237216.0,138588720.0,137292080.0
4233992.5,138594352.0,137290480.0
4243663.0,138573408.0,137264688.0
4231575.0,138612896.0,137304176.0
4235604.5,138701536.0,137330768.0
4239633.5,138666880.0,137300144.0
4242857.0,138646736.0,137335600.0
4252527.5,138696704.0,137324320.0
4256557.0,138676560.0,137368640.0
4252527.5,138725712.0,137389600.0
4250110.0,138748272.0,137383952.0
4248498.0,138761168.0,137420224.0
4252527.5,138809520.0,137327552.0
4246886.5,138834512.0,137410544.0
4250916.0,138852240.0,137375088.0
4246886.5,138774064.0,137343664.0
4247692.5,138732160.0,137391216.0
4236410.5,138654800.0,137380736.0
4236410.5,138634656.0,137350912.0
4238828.0,138554064.0,137310624.0
4243663.0,138492816.0,137323520.0
4244469.0,138527472.0,137363008.0
4238022.0,138497648.0,137302560.0
4230769.0,138504096.0,137296112.0
4239633.5,138492016.0,137311424.0
4231575.0,138499264.0,137298528.0
4231575.0,138525856.0,137343664.0
4229963.5,138518608.0,137319488.0
4231575.0,138471872.0,137259856.0
4226740.0,138508944.0,137316256.0
4229157.5,138554864.0,137281616.0
4228351.5,138604032.0,137300144.0
4224322.5,138611280.0,137324320.0
4232381.0,138533920.0,137276784.0
4229963.5,138558896.0,137334000.0
4231575.0,138549232.0,137355744.0
4225128.0,138568576.0,137320288.0
4221905.0,138571792.0,137320288.0
4223516.5,138585488.0,137338832.0
4224322.5,138603216.0,137311424.0
4212234.5,138589520.0,137396848.0
4225934.0,138579856.0,137321104.0
4223516.5,138634656.0,137308208.0
4220293.0,138614512.0,137335600.0
4224322.5,138613696.0,137338832.0
4217875.5,138641104.0,137338016.0
4214652.0,138704768.0,137366224.0
4233992.5,138685424.0,137325136.0
4228351.5,138699120.0,137357360.0
4233992.5,138749088.0,137390400.0
4228351.5,138763584.0,137346080.0
4226740.0,138753920.0,137374288.0
4231575.0,138791792.0,137459712.0
4228351.5,138757136.0,137418608.0
4229963.5,138808720.0,137450032.0
4229157.5,138795824.0,137409744.0
4233992.5,138829664.0,137358176.0
4237216.0,138817584.0,137413776.0
4231575.0,138852240.0,137446000.0
4229963.5,138857072.0,137405712.0
4236410.5,138873184.0,137446816.0
4238828.0,138911872.0,137423440.0
4244469.0,138894144.0,137479040.0
4242051.5,138958608.0,137479856.0
4248498.0,138981168.0,137466160.0
4237216.0,138986000.0,137452448.0
4238022.0,138973920.0,137484688.0
4247692.5,138981984.0,137450032.0
4242857.0,139031136.0,137465344.0
4242857.0,138987616.0,137450848.0
4242857.0,138955392.0,137441168.0
4248498.0,138939264.0,137483072.0
4242857.0,138801472.0,137444400.0
4242051.5,138827248.0,137433920.0
4236410.5,138749888.0,137404096.0
4234798.5,138733776.0,137446816.0
4237216.0,138698320.0,137412160.0
4237216.0,138674944.0,137452448.0
4233992.5,138709600.0,137411360.0
4229157.5,138722496.0,137404912.0
4237216.0,138681392.0,137401680.0
4234798.5,138671728.0,137404096.0
4231575.0,138741024.0,137373472.0
4232381.0,138759568.0,137449232.0
4232381.0,138794208.0,137375904.0
4230769.0,138753920.0,137401680.0
4226740.0,138765200.0,137436336.0
4229157.5,138765200.0,137391216.0
4229157.5,138762784.0,137421024.0
4231575.0,138750688.0,137408944.0
4233187.0,138761984.0,137387984.0
4232381.0,138744256.0,137371056.0
4228351.5,138765200.0,137396048.0
4227546.0,138730544.0,137411360.0
4233992.5,138734576.0,137355744.0
4228351.5,138765200.0,137403296.0
4233187.0,138795024.0,137433120.0
4234798.5,138789376.0,137416992.0
4235604.5,138774064.0,137399264.0
4237216.0,138825648.0,137416192.0
4238022.0,138849824.0,137415392.0
4238022.0,138830480.0,137404912.0
4242051.5,138907840.0,137423440.0
4239633.5,138878832.0,137425856.0
4238828.0,138874000.0,137408944.0
4238022.0,138886080.0,137424256.0
4241245.5,138947328.0,137466960.0
4244469.0,138913472.0,137442784.0
4248498.0,138932016.0,137456480.0
4250916.0,138937648.0,137413776.0
4245274.5,138973120.0,137453264.0
4248498.0,139023888.0,137513696.0
4258974.5,138978752.0,137488720.0
4254945.0,139041616.0,137461312.0
4258974.5,139042416.0,137503216.0
4263003.5,139049664.0,137454864.0
4263809.5,139066592.0,137522560.0
4267839.0,139106080.0,137519344.0
4263003.5,139125424.0,137492752.0
4260586.0,139135904.0,137490336.0
4268644.5,139143152.0,137500800.0
4265421.0,139110112.0,137567696.0
4268644.5,139193920.0,137545136.0
4261392.0,139124608.0,137516112.0
4273480.0,139042416.0,137528208.0
4257362.5,138981984.0,137505648.0
4263003.5,138911872.0,137519344.0
4260586.0,138892528.0,137492752.0
4256557.0,138803888.0,137412160.0
4246080.5,138837728.0,137496784.0
4253333.5,138818384.0,137429088.0
4249304.0,138796624.0,137396048.0
4250110.0,138817584.0,137451648.0
4250110.0,138832896.0,137416992.0
4250916.0,138828864.0,137458096.0
4255751.0,138778896.0,137429888.0
4263809.5,138857872.0,137464544.0
4255751.0,138897360.0,137474208.0
4258974.5,138841760.0,137436336.0
4262198.0,138880432.0,137448432.0
4263003.5,138874000.0,137433120.0
4253333.5,138865936.0,137425856.0
4258974.5,138849008.0,137467760.0
4257362.5,138819200.0,137405712.0
4260586.0,138776480.0,137408128.0
4262198.0,138806304.0,137412160.0
4262198.0,138811936.0,137413776.0
4265421.0,138829664.0,137439568.0
4263003.5,138832896.0,137401680.0
4270256.5,138834512.0,137413776.0
4270256.5,138881248.0,137462128.0
4269450.5,138877216.0,137500000.0
4275091.5,138866736.0,137432304.0
4274285.5,138885280.0,137473408.0
4271062.5,138894944.0,137405712.0
4280732.5,138949744.0,137416992.0
4283150.0,138925568.0,137489520.0
4286373.5,138986816.0,137430688.0
4279121.0,138969088.0,137472608.0
4287179.5,138950544.0,137450032.0
4275897.5,138966672.0,137445200.0
4278315.0,139008576.0,137416192.0
4276703.5,139014208.0,137452448.0
4283956.0,139067392.0,137497584.0
4285568.0,139069008.0,137476624.0
4293626.5,139067392.0,137516928.0
4286373.5,139132672.0,137526592.0
4293626.5,139139920.0,137445200.0
4294432.0,139149600.0,137466160.0
4292014.5,139162496.0,137469376.0
4288791.0,139211648.0,137490336.0
4295238.0,139152016.0,137526592.0
4292014.5,139207616.0,137552384.0
4296850.0,139182640.0,137480656.0
4301685.0,139229376.0,137530624.0
4291209.0,139202784.0,137514512.0
4293626.5,139155232.0,137504032.0
4291209.0,139125424.0,137518528.0
4292014.5,138973920.0,137440368.0
4289597.0,138922352.0,137469376.0
4283956.0,138890112.0,137498384.0
4288791.0,138878016.0,137466160.0
4284762.0,138860288.0,137449232.0
4287985.5,138854656.0,137398464.0
4284762.0,138799040.0,137411360.0
4282344.5,138798240.0,137401680.0
4284762.0,138851424.0,137355744.0
4290403.0,138848208.0,137394432.0
4280732.5,138861904.0,137458096.0
4289597.0,138914288.0,137395232.0
4284762.0,138889312.0,137372672.0
4279926.5,138910256.0,137399264.0
4290403.0,138931216.0,137427472.0
4287985.5,138886080.0,137376704.0
4290403.0,138883664.0,137370256.0
4289597.0,138904608.0,137380736.0
4287179.5,138867552.0,137383952.0
4284762.0,138868352.0,137355744.0
4283956.0,138828864.0,137399264.0
4285568.0,138883664.0,137387184.0
4291209.0,138847392.0,137338832.0
4288791.0,138865136.0,137362192.0
4283956.0,138900592.0,137371056.0
4277509.0,138901392.0,137374288.0
4289597.0,138929600.0,137384768.0
4285568.0,138962640.0,137372672.0
4283956.0,138973120.0,137363808.0
4302491.0,138997296.0,137376704.0
4296850.0,138984400.0,137353328.0
4301685.0,138975536.0,137365424.0
4301685.0,138993264.0,137380736.0
4291209.0,139085136.0,137381536.0
4301685.0,139048864.0,137371872.0
4292820.5,139105280.0,137408128.0
4300073.5,139109312.0,137346880.0
4297655.5,139087552.0,137392016.0
4302491.0,139101248.0,137334800.0
4304102.5,139157648.0,137425856.0
4310549.5,139141536.0,137437136.0
4307326.0,139139120.0,137432304.0
4309743.5,139192304.0,137413776.0
4304908.5,139200368.0,137450032.0
4312161.0,139194720.0,137462128.0
4302491.0,139213264.0,137406528.0
4309743.5,139184256.0,137483072.0
4308132.0,139146368.0,137410544.0
4308132.0,139051280.0,137441984.0
4300879.0,138965056.0,137350112.0
4306520.0,138911872.0,137373472.0
4296850.0,138852240.0,137324320.0
4303296.5,138790176.0,137337216.0
4304102.5,138795024.0,137313840.0
4289597.0,138807920.0,137241312.0
4296044.0,138807104.0,137289664.0
4292014.5,138791792.0,137303376.0
4284762.0,138799856.0,137271936.0
4292014.5,138821616.0,137300144.0
4292820.5,138825648.0,137253408.0
4287985.5,138850624.0,137312240.0
4294432.0,138878016.0,137233264.0
4292820.5,138849824.0,137250176.0
4301685.0,138864320.0,137285648.0
4293626.5,138871568.0,137222784.0
4300073.5,138808720.0,137249376.0
4291209.0,138852240.0,137268720.0
4292820.5,138767616.0,137221984.0
4296850.0,138794208.0,137187328.0
4297655.5,138835312.0,137246960.0
4291209.0,138797440.0,137242128.0
4296850.0,138803888.0,137196992.0
4300879.0,138856256.0,137233264.0
4295238.0,138847392.0,137267920.0
4302491.0,138869152.0,137197808.0
4310549.5,138852240.0,137236480.0
4307326.0,138866736.0,137197808.0
4304908.5,138886080.0,137267104.0
4304102.5,138936848.0,137200224.0
4308937.5,138955392.0,137243744.0
4304908.5,138945712.0,137290480.0
4308132.0,138964256.0,137251792.0
4300879.0,139012608.0,137241312.0
4290403.0,139017440.0,137259856.0
4301685.0,138985200.0,137271136.0
4304908.5,139031936.0,137254208.0
4315384.5,139051280.0,137241312.0
4322637.5,139089968.0,137252608.0
4314579.0,139009376.0,137276784.0
4324249.0,139099632.0,137300960.0
4308132.0,139074656.0,137294512.0
4320220.0,139113328.0,137279200.0
4312161.0,139023072.0,137292080.0
4313773.0,139035968.0,137293696.0
4305714.5,138905424.0,137265488.0
4297655.5,138863520.0,137231648.0
4302491.0,138728944.0,137230848.0
4294432.0,138724912.0,137135744.0
4294432.0,138641904.0,137118016.0
4289597.0,138641904.0,137096256.0
4293626.5,138603216.0,137123664.0
4283150.0,138683008.0,137110768.0
4296850.0,138575024.0,137079344.0
4289597.0,138624176.0,137102704.0
4294432.0,138591136.0,137089824.0
4299267.5,138645136.0,137081760.0
4287179.5,138644320.0,137080960.0
4289597.0,138701536.0,137064832.0
4292014.5,138731360.0,137131728.0
4294432.0,138631424.0,137101104.0
4299267.5,138653184.0,137044688.0
4298461.5,138611280.0,137111568.0
4291209.0,138653184.0,137076112.0
4293626.5,138649968.0,137066448.0
4294432.0,138642704.0,137071280.0
4293626.5,138606448.0,137126880.0
4292014.5,138649152.0,137064832.0
4296044.0,138617728.0,137072080.0
4293626.5,138666880.0,137010032.0
4294432.0,138615312.0,137069664.0
4298461.5,138647552.0,137034208.0
4294432.0,138713632.0,137046304.0
4302491.0,138671728.0,137117216.0
4297655.5,138697504.0,137101104.0
4298461.5,138747472.0,137089824.0
4304908.5,138781312.0,137157504.0
4303296.5,138729744.0,137114000.0
4312161.0,138803888.0,137078528.0
4307326.0,138793408.0,137109968.0
4307326.0,138769232.0,137098688.0
4305714.5,138820000.0,137145424.0
4311355.5,138785344.0,137105136.0
4314579.0,138896560.0,137110768.0
4309743.5,138859488.0,137150256.0
4307326.0,138903008.0,137148640.0
4306520.0,138943296.0,137188944.0
4313773.0,138865136.0,137093040.0
4316190.5,138790176.0,137171216.0
4302491.0,138716048.0,137138176.0
4302491.0,138654000.0,137058384.0
4298461.5,138564544.0,137084976.0
4299267.5,138518608.0,137054352.0
4293626.5,138475904.0,137027760.0
4299267.5,138460592.0,137045488.0
4289597.0,138496048.0,137010032.0
4296044.0,138502496.0,137035824.0
4284762.0,138442048.0,137001984.0
4294432.0,138467840.0,136987472.0
4292820.5,138495232.0,137039040.0
4287179.5,138537952.0,137024544.0
4288791.0,138535536.0,137024544.0
4300879.0,138547616.0,137060800.0
4297655.5,138533920.0,137008432.0
4299267.5,138545200.0,137064832.0
4297655.5,138488784.0,137021312.0
4296044.0,138523440.0,137022128.0
4294432.0,138502496.0,137068064.0
4294432.0,138478320.0,137046304.0
4297655.5,138497648.0,137034208.0
4306520.0,138492816.0,137016480.0
4300073.5,138501680.0,137061616.0
4300073.5,138519408.0,137068064.0
4307326.0,138467840.0,136997136.0
4298461.5,138526672.0,137081760.0
4303296.5,138570176.0,137088208.0
4303296.5,138546816.0,137080144.0
4312161.0,138505712.0,137049520.0
4304908.5,138626592.0,137087392.0
4304102.5,138654800.0,137084176.0
4304908.5,138604832.0,137081760.0
4311355.5,138579040.0,137047104.0
4314579.0,138664464.0,137099488.0
4312161.0,138687040.0,137068064.0
4313773.0,138740224.0,137078528.0
4312161.0,138748272.0,137109152.0
4316190.5,138682192.0,137136560.0
4313773.0,138749888.0,137089824.0
4316190.5,138772448.0,137093040.0
4311355.5,138715232.0,137123664.0
4307326.0,138692672.0,137089008.0
4313773.0,138638688.0,137122048.0
4309743.5,138600800.0,137089008.0
4304908.5,138474288.0,137047920.0
4312161.0,138421904.0,137063216.0
4299267.5,138371936.0,137080144.0
4295238.0,138332448.0,137013264.0
4289597.0,138325200.0,136994720.0
4296850.0,138304256.0,136989888.0
4291209.0,138353408.0,137039040.0
4292014.5,138360656.0,137000368.0
4293626.5,138313120.0,137009232.0
4283150.0,138312304.0,136984256.0
4295238.0,138328432.0,136942352.0
4296044.0,138317952.0,137020512.0
4296044.0,138306672.0,137029376.0
4287179.5,138331648.0,137010032.0
4287179.5,138321984.0,137022928.0
4298461.5,138357440.0,136989888.0
4292820.5,138342128.0,136999568.0
4290403.0,138282496.0,136988272.0
4294432.0,138318752.0,136941536.0
4288791.0,138293776.0,137038240.0
4283956.0,138303440.0,137012448.0
4287179.5,138381616.0,137016480.0
4288791.0,138381616.0,137050336.0
4286373.5,138360656.0,137022928.0
4285568.0,138365488.0,137099488.0
4282344.5,138425936.0,137130912.0
4292014.5,138422704.0,137144608.0
4289597.0,138452528.0,137091424.0
4300073.5,138429152.0,137109968.0
4300879.0,138514576.0,137080144.0
4290403.0,138524256.0,137134944.0
4305714.5,138546816.0,137111568.0
4299267.5,138531504.0,137207472.0
4296044.0,138623376.0,137127696.0
4302491.0,138603216.0,137125280.0
4296044.0,138620144.0,137182496.0
4301685.0,138632240.0,137222784.0
4309743.5,138668496.0,137182496.0
4315384.5,138654000.0,137195392.0
4314579.0,138674944.0,137202640.0
4312161.0,138660432.0,137210688.0
4300073.5,138595968.0,137234864.0
4312161.0,138525856.0,137225200.0
4308132.0,138463008.0,137186528.0
4307326.0,138400144.0,137148640.0
4304102.5,138357440.0,137228432.0
4304908.5,138342928.0,137099488.0
4306520.0,138300224.0,137173632.0
4300879.0,138295392.0,137141392.0
4301685.0,138281680.0,137051936.0
4299267.5,138258320.0,137143808.0
4291209.0,138304256.0,137124464.0
4294432.0,138294576.0,137136560.0
4292820.5,138235744.0,137136560.0
4295238.0,138308272.0,137149456.0
4296044.0,138317136.0,137167184.0
4298461.5,138360656.0,137151872.0
4304908.5,138320368.0,137198608.0
4298461.5,138342928.0,137191360.0
4299267.5,138334864.0,137179264.0
4293626.5,138346160.0,137152672.0
4300073.5,138326816.0,137198608.0
4296850.0,138317952.0,137216336.0
4300073.5,138362272.0,137227616.0
4302491.0,138357440.0,137198608.0
4298461.5,138394512.0,137209088.0
4296044.0,138392080.0,137184096.0
4298461.5,138434800.0,137255824.0
4299267.5,138441248.0,137206672.0
4305714.5,138425136.0,137241312.0
4309743.5,138433184.0,137282416.0
4312967.0,138483952.0,137248576.0
4317802.0,138463008.0,137192960.0
4309743.5,138510544.0,137236480.0
4317802.0,138534720.0,137291280.0
4316996.5,138576624.0,137282416.0
4316996.5,138606448.0,137334000.0
4308937.5,138558096.0,137292080.0
4316190.5,138590336.0,137346080.0
4308937.5,138629824.0,137271136.0
4312967.0,138625792.0,137323520.0
4309743.5,138637872.0,137296928.0
4309743.5,138686224.0,137325136.0
4310549.5,138678176.0,137322704.0
4308937.5,138646736.0,137346880.0
4311355.5,138528272.0,137360592.0
4308937.5,138473472.0,137341248.0
4300073.5,138420288.0,137342864.0
4306520.0,138370336.0,137306592.0
4301685.0,138326000.0,137284832.0
4300073.5,138321984.0,137221168.0
4287985.5,138296992.0,137267104.0
4286373.5,138273632.0,137244544.0
4292014.5,138333264.0,137288064.0
4290403.0,138288128.0,137233264.0
4294432.0,138287328.0,137236480.0
4289597.0,138308272.0,137276784.0
4288791.0,138314720.0,137268720.0
4288791.0,138379200.0,137277584.0
4292820.5,138374352.0,137318688.0
4285568.0,138365488.0,137259040.0
4279926.5,138360656.0,137256624.0
4272674.0,138368720.0,137300960.0
4282344.5,138361472.0,137308208.0
4276703.5,138346160.0,137340432.0
4279121.0,138364688.0,137301760.0
4280732.5,138305056.0,137290480.0
4274285.5,138403376.0,137312240.0
4280732.5,138406592.0,137353328.0
4265421.0,138396928.0,137348496.0
4270256.5,138440432.0,137301760.0
4264615.5,138446080.0,137389600.0
4264615.5,138457360.0,137373472.0
4263003.5,138471056.0,137358976.0
4265421.0,138456560.0,137365424.0
4262198.0,138479920.0,137348496.0
4263809.5,138457360.0,137375088.0
4262198.0,138552448.0,137391216.0
4259780.0,138517808.0,137411360.0
4265421.0,138595168.0,137423440.0
4263003.5,138586304.0,137421824.0
4256557.0,138644320.0,137436336.0
4268644.5,138651568.0,137452448.0
4267033.0,138670912.0,137491136.0
4272674.0,138687040.0,137457296.0
4270256.5,138691872.0,137437136.0
4263809.5,138699920.0,137438752.0
4265421.0,138698320.0,137485488.0
4255751.0,138694288.0,137455680.0
4260586.0,138540368.0,137457296.0
4252527.5,138515392.0,137429888.0
4242051.5,138431568.0,137479856.0
4249304.0,138385648.0,137433120.0
4244469.0,138364688.0,137420224.0
4238828.0,138341312.0,137429088.0
4238022.0,138370336.0,137398464.0
4235604.5,138396112.0,137419408.0
4234798.5,138389664.0,137441984.0
4237216.0,138347760.0,137403296.0
4231575.0,138312304.0,137374288.0
4227546.0,138305056.0,137369456.0
4225934.0,138396112.0,137419408.0
4231575.0,138399344.0,137370256.0
4230769.0,138394512.0,137388784.0
4229963.5,138403376.0,137414576.0
4236410.5,138384032.0,137400880.0
4220293.0,138409008.0,137425056.0
4228351.5,138391280.0,137482272.0
4214652.0,138442864.0,137424256.0
4226740.0,138352608.0,137451648.0
4223516.5,138380000.0,137396048.0
4224322.5,138428352.0,137410544.0
4222710.5,138454144.0,137451648.0
4218681.5,138426736.0,137382352.0
4219487.0,138456560.0,137450848.0
4221099.0,138460592.0,137383952.0
4213846.0,138486368.0,137437136.0
4212234.5,138556480.0,137404912.0
4218681.5,138548432.0,137495968.0
4209817.0,138562128.0,137462128.0
4215458.0,138551648.0,137488720.0
4213846.0,138539568.0,137437136.0
4213040.5,138698320.0,137504032.0
4209011.0,138629824.0,137508064.0
4207399.5,138681392.0,137485488.0
4206593.5,138656416.0,137468576.0
4209011.0,138707184.0,137514512.0
4209817.0,138743440.0,137557216.0
4204176.0,138749088.0,137500800.0
4207399.5,138745856.0,137555600.0
4207399.5,138786160.0,137581392.0
4204176.0,138785344.0,137530624.0
4196117.0,138830480.0,137503216.0
4204981.5,138788576.0,137592672.0
4192088.0,138774064.0,137570112.0
4198535.0,138766000.0,137547552.0
4192088.0,138663664.0,137558832.0
4191282.0,138583072.0,137576560.0
4192088.0,138481536.0,137485488.0
4185641.0,138521824.0,137533040.0
4184029.25,138505712.0,137534656.0
4181611.75,138450912.0,137500000.0
4181611.75,138500880.0,137505648.0
4173553.0,138461392.0,137551568.0
4176776.5,138441248.0,137487920.0
4160659.25,138428352.0,137439568.0
4169523.75,138415456.0,137460512.0
4159853.5,138404176.0,137427472.0
4147765.5,138406592.0,137461312.0
4157436.0,138453328.0,137399264.0
4158241.75,138471056.0,137413776.0
4156630.0,138487984.0,137493552.0
4145348.0,138466224.0,137443584.0
4151794.75,138507328.0,137458096.0
4145348.0,138488784.0,137434720.0
4149377.25,138471872.0,137496784.0
4142930.5,138434800.0,137448432.0
4150989.0,138489600.0,137470176.0
4135677.75,138503296.0,137459712.0
4137289.5,138529088.0,137479856.0
4136483.5,138529888.0,137475824.0
4138901.0,138508128.0,137494352.0
4130036.75,138512960.0,137431504.0
4121978.0,138501680.0,137396848.0
4119560.5,138620960.0,137486304.0
4114725.25,138574208.0,137506448.0
4109890.0,138604032.0,137515312.0
4109084.25,138635456.0,137445200.0
4107472.5,138669312.0,137485488.0
4098608.0,138720080.0,137476624.0
4098608.0,138650768.0,137520960.0
4090549.5,138736992.0,137479040.0
4083296.75,138751504.0,137516112.0
4081685.0,138741824.0,137508864.0
4084908.5,138717648.0,137501616.0
4081685.0,138777296.0,137556416.0
4074432.25,138766000.0,137453264.0
4068791.25,138788576.0,137503216.0
4064762.0,138832896.0,137497584.0
4070403.0,138831280.0,137525792.0
4069597.0,138830480.0,137472608.0
4065567.75,138918320.0,137478240.0
4055897.5,138884464.0,137515312.0
4052674.0,138899776.0,137543520.0
4050256.5,138863520.0,137501616.0
4038168.5,138862704.0,137574944.0
4037362.75,138764400.0,137499200.0
4036556.75,138698320.0,137440368.0
4025274.75,138645136.0,137440368.0
4018022.0,138579040.0,137446816.0
4022051.25,138558096.0,137455680.0
4019633.75,138570176.0,137386368.0
4018022.0,138551648.0,137466160.0
4007545.75,138583888.0,137460512.0
4005934.0,138537136.0,137396848.0
4006740.0,138561312.0,137405712.0
4005128.25,138565344.0,137412960.0
4001099.0,138540368.0,137466960.0
4009963.25,138517808.0,137393632.0
4005128.25,138614512.0,137429888.0
4003516.5,138605648.0,137403296.0
4006740.0,138639488.0,137379120.0
4010769.25,138633840.0,137412160.0
4012381.0,138621760.0,137412960.0
4017216.0,138606448.0,137396048.0
4017216.0,138552448.0,137410544.0
4017216.0,138595168.0,137411360.0
4015604.5,138623376.0,137396048.0
4019633.75,138616112.0,137390400.0
4030915.75,138615312.0,137391216.0
4026886.5,138657216.0,137371872.0
4034945.0,138667696.0,137366224.0
4037362.75,138687840.0,137423440.0
4035751.0,138694288.0,137407328.0
4038168.5,138707184.0,137470176.0
4044615.5,138700736.0,137308208.0
4034945.0,138790992.0,137433120.0
4045421.25,138757952.0,137432304.0
4054285.75,138786960.0,137454864.0
4051062.25,138798240.0,137412160.0
4044615.5,138821616.0,137409744.0
4051062.25,138795824.0,137417808.0
4060732.5,138780512.0,137430688.0
4056703.25,138829664.0,137386368.0
4062344.25,138894944.0,137453264.0
4072014.75,138902192.0,137366224.0
4066373.75,138898976.0,137439568.0
4073626.25,138915904.0,137365424.0
4076044.0,138972304.0,137436336.0
4093773.0,138921536.0,137414576.0
4088937.75,139015824.0,137412960.0
4106666.75,138964256.0,137400080.0
4110696.0,138984400.0,137389600.0
4115531.25,139017440.0,137386368.0
4126813.25,138993264.0,137429088.0
4125201.5,139010992.0,137381536.0
4130036.75,138990848.0,137351728.0
4142124.5,138909456.0,137339632.0
4146153.75,138845792.0,137383152.0
4150183.25,138776480.0,137297728.0
4159853.5,138675744.0,137233264.0
4166300.25,138649968.0,137295312.0
4164688.75,138689456.0,137247760.0
4170329.75,138641104.0,137201024.0
4170329.75,138668496.0,137249376.0
4172747.25,138660432.0,137293696.0
4178388.25,138641904.0,137234864.0
4182417.5,138655600.0,137181680.0
4186447.0,138657216.0,137211504.0
4189670.25,138637872.0,137171216.0
4186447.0,138705568.0,137184096.0
4195311.5,138712816.0,137168784.0
4200146.5,138746672.0,137213920.0
4213040.5,138697504.0,137201824.0
4209817.0,138744256.0,137224400.0
4216263.5,138710400.0,137213920.0
4216263.5,138720880.0,137218752.0
4212234.5,138708784.0,137163952.0
4210622.5,138719264.0,137167984.0
4215458.0,138725712.0,137149456.0
4212234.5,138740224.0,137151872.0
4213040.5,138736992.0,137160736.0
4220293.0,138715232.0,137162352.0
4214652.0,138844176.0,137182496.0
4217875.5,138801472.0,137253408.0
4215458.0,138819200.0,137214720.0
4218681.5,138830480.0,137214720.0
4217069.5,138844976.0,137224400.0
4213040.5,138878016.0,137225200.0
4211428.5,138879632.0,137214720.0
4207399.5,138887696.0,137275968.0
4211428.5,138931216.0,137251792.0
4201758.0,138946528.0,137226816.0
4192088.0,138971504.0,137286448.0
4199340.5,139009376.0,137233264.0
4195311.5,139023888.0,137255824.0
4193699.75,139015824.0,137243744.0
4185641.0,139006160.0,137282416.0
4179194.25,139019040.0,137238896.0
4167912.0,139100432.0,137297728.0
4171135.5,139116560.0,137305792.0
4160659.25,139126224.0,137275968.0
4160659.25,139118976.0,137341248.0
4167106.25,139118976.0,137316256.0
4165494.5,139206000.0,137309008.0
4164688.75,139142352.0,137312240.0
4166300.25,139211648.0,137292080.0
4160659.25,139211648.0,137313040.0
4167106.25,139159264.0,137340432.0
4166300.25,139116560.0,137286448.0
4171941.5,139025488.0,137292080.0
4175970.75,138991648.0,137272752.0
4170329.75,138931216.0,137250992.0
4173553.0,138888496.0,137263888.0
4187252.75,138914288.0,137281616.0
4181611.75,138973920.0,137305792.0
4195311.5,138908640.0,137296928.0
4193699.75,138912672.0,137297728.0
4196117.0,138907040.0,137245344.0
4206593.5,138945712.0,137254208.0
4208205.0,138845792.0,137202640.0
4217069.5,138998896.0,137222784.0
4220293.0,138983584.0,137206672.0
4225934.0,138931216.0,137225200.0
4233992.5,138977952.0,137179264.0
4248498.0,139002128.0,137171216.0
4250110.0,139023888.0,137227616.0
4265421.0,138934432.0,137263888.0
4279121.0,138939264.0,137215536.0
4269450.5,138948128.0,137210688.0
4284762.0,138991648.0,137185712.0
4292014.5,138994064.0,137192160.0
4299267.5,138990032.0,137249376.0
4307326.0,138949744.0,137210688.0
4313773.0,138981984.0,137207472.0
4317802.0,139004544.0,137207472.0
4333919.5,138985200.0,137201824.0
4329890.0,139044832.0,137213920.0
4350842.5,139027920.0,137218752.0
4352454.0,139035168.0,137146224.0
4362930.5,139056928.0,137246960.0
4357289.5,139142352.0,137225200.0
4355677.5,139111728.0,137203440.0
4367765.5,139105280.0,137225200.0
4369377.5,139161680.0,137216336.0
4367765.5,139189088.0,137222784.0
4389524.0,139192304.0,137238896.0
4383077.0,139224544.0,137226816.0
4385494.5,139230992.0,137302560.0
4392747.5,139216480.0,137263888.0
4394359.0,139272080.0,137253408.0
4403223.5,139327696.0,137316256.0
4401611.5,139294656.0,137341248.0
4417729.0,139297872.0,137267104.0
4418535.0,139359120.0,137345280.0
4425787.5,139359920.0,137227616.0
4426593.5,139430032.0,137358176.0
4425787.5,139396192.0,137352528.0
4418535.0,139386528.0,137296112.0
4419340.5,139360736.0,137292896.0
4412894.0,139331728.0,137316256.0
4421758.0,139231792.0,137271936.0
4412088.0,139165712.0,137267104.0
4408058.5,139089152.0,137245344.0
4408058.5,139046448.0,137275168.0
4408058.5,139115744.0,137341248.0
4416923.0,139148784.0,137329152.0
4422564.0,139100432.0,137338832.0
4422564.0,139103664.0,137260656.0
4414505.5,139072240.0,137207472.0
4421758.0,139088352.0,137168784.0
4420146.5,139057728.0,137167984.0
4429011.0,139086736.0,137151056.0
4433040.5,139097216.0,137205856.0
4444322.5,139117360.0,137126880.0
4449157.5,139110112.0,137150256.0
4461245.5,139109312.0,137180880.0
4469304.0,139117360.0,137184096.0
4483003.5,139098016.0,137202640.0
4493480.0,139064976.0,137181680.0
4490256.5,139090768.0,137188944.0
4518461.5,139106080.0,137142192.0
4533773.0,139086736.0,137186528.0
4558754.5,139127040.0,137226000.0
4572454.0,139103664.0,137188944.0
4576483.5,139152016.0,137131728.0
4615970.5,139150400.0,137206672.0
4637729.0,139143952.0,137221168.0
4657069.5,139168128.0,137238896.0
4677216.0,139197136.0,137181680.0
4690916.0,139206000.0,137255024.0
4705421.0,139230992.0,137251792.0
4724762.0,139238240.0,137201024.0
4732014.5,139252752.0,137239712.0
4747326.0,139252752.0,137217952.0
4761025.5,139286592.0,137268720.0
4774725.5,139341392.0,137237296.0
4797289.5,139327696.0,137234864.0
4806959.5,139343808.0,137245344.0
4822271.0,139383296.0,137290480.0
4856923.0,139329312.0,137305792.0
4865787.5,139384096.0,137280800.0
4873846.0,139375232.0,137321104.0
4889963.5,139434064.0,137260656.0
4901245.5,139483216.0,137306592.0
4905274.5,139490480.0,137314656.0
4898022.0,139513840.0,137313840.0
4914139.0,139515456.0,137367040.0
4918974.5,139460656.0,137346880.0
4924615.5,139453408.0,137328352.0
4933480.0,139421168.0,137343664.0
4947985.5,139276928.0,137292080.0
4961685.0,139238240.0,137271936.0
4992307.5,139184256.0,137334000.0
5016483.5,139117360.0,137235680.0
5027765.5,139197952.0,137252608.0
5065641.0,139119776.0,137247760.0
5082564.0,139107696.0,137268720.0
5112381.0,139146368.0,137251792.0
5138974.5,139136704.0,137261472.0
5162344.5,139175392.0,137246160.0
5188937.5,139193920.0,137209888.0
5214725.5,139230176.0,137244544.0
5217143.0,139230992.0,137198608.0
5246959.5,139202784.0,137240512.0
5268718.0,139212448.0,137274352.0
5288058.5,139203584.0,137255824.0
5296923.0,139173776.0,137226000.0
5310622.5,139196336.0,137205056.0
5328351.5,139129456.0,137213920.0
5339633.5,139183440.0,137210688.0
5341245.5,139140736.0,137201824.0
5365421.0,139132672.0,137209088.0
5378315.0,139172960.0,137249376.0
5395238.0,139184256.0,137176848.0
5408132.0,139224544.0,137234864.0
5408937.5,139211648.0,137253408.0
5408132.0,139230176.0,137227616.0
5409743.5,139242272.0,137250176.0
5410549.5,139266448.0,137225200.0
5400073.5,139319632.0,137273552.0
5414579.0,139272896.0,137245344.0
5408937.5,139308352.0,137307392.0
5404908.5,139353472.0,137280800.0
5406520.0,139361536.0,137313040.0
5420220.0,139370400.0,137313040.0
5427472.5,139338976.0,137283216.0
5442784.0,139434864.0,137321104.0
5470989.0,139437296.0,137316256.0
5484688.5,139430848.0,137332384.0
5498388.5,139443744.0,137341248.0
5520952.5,139439712.0,137386368.0
5533040.5,139482416.0,137309824.0
5544322.5,139535600.0,137333184.0
5556410.5,139525936.0,137377504.0
5590256.5,139546080.0,137296928.0
5612014.5,139478384.0,137352528.0
5628132.0,139438096.0,137357360.0
5648278.5,139360736.0,137307392.0
5659560.5,139315600.0,137306592.0
5686154.0,139201168.0,137283216.0
5705494.5,139189888.0,137224400.0
5731282.0,139127040.0,137258240.0
5740952.5,139156848.0,137271136.0
5757069.5,139148784.0,137251792.0
5781245.5,139100432.0,137288064.0
5792527.5,139166528.0,137204256.0
5822344.5,139176992.0,137254208.0
5820732.5,139236624.0,137252608.0
5827179.5,139235024.0,137216336.0
5850549.5,139225344.0,137236480.0
5852967.0,139201984.0,137255824.0
5851355.5,139280960.0,137242128.0
5857802.0,139247920.0,137273552.0
5858608.0,139231792.0,137271136.0
5856190.5,139202784.0,137209888.0
5866666.5,139193920.0,137210688.0
5875531.0,139205200.0,137213120.0
5899707.0,139216480.0,137250992.0
5921465.0,139219712.0,137219568.0
5941611.5,139208432.0,137241312.0
5962564.0,139206000.0,137229232.0
5983516.5,139252752.0,137221984.0
6021392.0,139230176.0,137236480.0
6055238.0,139238240.0,137224400.0
6087472.5,139316416.0,137277584.0
6105201.5,139296256.0,137280000.0
6159194.0,139310768.0,137262272.0
6183370.0,139313184.0,137277584.0
6213992.5,139335744.0,137300960.0
6254285.5,139341392.0,137219568.0
6281685.0,139405856.0,137337216.0
6309890.0,139336560.0,137312240.0
6340513.0,139412304.0,137329152.0
6370329.5,139443744.0,137384768.0
6392088.0,139401024.0,137289664.0
6428351.5,139471936.0,137288864.0
6451721.5,139438096.0,137321904.0
6484762.0,139475168.0,137292080.0
6506520.0,139472752.0,137333184.0
6537143.0,139465488.0,137336416.0
6570183.0,139380080.0,137335600.0
6579853.5,139381680.0,137367040.0
6581465.0,139295456.0,137260656.0
6582271.0,139203584.0,137308208.0
6592747.5,139087552.0,137299344.0
6588718.0,139069824.0,137247760.0
6595970.5,139094000.0,137196992.0
6596776.5,139076256.0,137184912.0
6587106.0,139057728.0,137208272.0
6616923.0,139067392.0,137170400.0
6625787.5,139094800.0,137147840.0
6626593.5,139103664.0,137193776.0
6653992.5,139061760.0,137217952.0
6674945.0,139125424.0,137230032.0
6712014.5,139134288.0,137151872.0
6728132.0,139172160.0,137178464.0
6761172.0,139176192.0,137214720.0
6774872.0,139094800.0,137136560.0
6773260.0,139154432.0,137184912.0
6774066.0,139079488.0,137188944.0
6755531.0,139085936.0,137184096.0
6745861.0,139049664.0,137192160.0
6727326.0,139111728.0,137192960.0
6689450.5,139110112.0,137184096.0
6684615.5,139056112.0,137164768.0
6679780.0,139087552.0,137140592.0
6690256.5,139075456.0,137097872.0
6702344.5,139087552.0,137179264.0
6753919.5,139139920.0,137192160.0
6795018.5,139135088.0,137192960.0
6849817.0,139159264.0,137226816.0
6908644.5,139158464.0,137214720.0
6954579.0,139199568.0,137235680.0
7005348.0,139199568.0,137267104.0
7056923.0,139256784.0,137228432.0
7102051.5,139255968.0,137245344.0
7151209.0,139272896.0,137263072.0
7193919.5,139281760.0,137255024.0
7224542.0,139305936.0,137271136.0
7275311.5,139289008.0,137240512.0
7318022.0,139334144.0,137224400.0
7380073.5,139305936.0,137215536.0
7411502.0,139320432.0,137220368.0
7438901.0,139264832.0,137295312.0
7465494.5,139169744.0,137237296.0
7503370.0,139056928.0,137228432.0
7537216.0,139007760.0,137199408.0
7553333.5,138939264.0,137206672.0
7554945.0,138911056.0,137114800.0
7567839.0,138861904.0,137143008.0
7559780.0,138835312.0,137182496.0
7550110.0,138879632.0,137107552.0
7551721.5,138832896.0,137047920.0
7567839.0,138861104.0,137058384.0
7574285.5,138870768.0,137106736.0
7554945.0,138899776.0,137069664.0
7562198.0,138895744.0,137080144.0
7573480.0,138935232.0,137162352.0
7567839.0,138886080.0,137063216.0
7570256.5,138927984.0,137088208.0
7569450.5,138924768.0,137097072.0
7578315.0,138846592.0,137061616.0
7593626.5,138851424.0,137076928.0
7575091.5,138887696.0,137023744.0
7579926.5,138879632.0,137061616.0
7565421.0,138867552.0,137057584.0
7575897.5,138887696.0,137094656.0
7572674.0,138876416.0,137135744.0
7583150.0,138919920.0,137100288.0
7579926.5,138853040.0,137125280.0
7588791.0,138909456.0,137057584.0
7577509.0,138940880.0,137128496.0
7579926.5,138955392.0,137099488.0
7576703.5,139008576.0,137118832.0
7587179.5,138973120.0,137116416.0
7593626.5,138976336.0,137132528.0
7590403.0,138999712.0,137170400.0
7592014.5,138982784.0,137151872.0
7592820.5,139089152.0,137143808.0
7592820.5,139061760.0,137158320.0
7594432.0,139108496.0,137143008.0
7586373.5,139107696.0,137175232.0
7589597.0,139116560.0,137178464.0
7593626.5,139112528.0,137201024.0
7601685.0,139027920.0,137124464.0
7600073.5,138964256.0,137139776.0
7583956.0,138809520.0,137134144.0
7577509.0,138797440.0,137112384.0
7578315.0,138749888.0,137023744.0
7574285.5,138586304.0,137056784.0
7564615.5,138745856.0,137087392.0
7576703.5,138649968.0,137025344.0
7570256.5,138686224.0,136986672.0
7558168.5,138641104.0,137039856.0
7576703.5,138602416.0,137046304.0
7548498.0,138629008.0,137014064.0
7562198.0,138634656.0,137026960.0
7559780.0,138684608.0,137010848.0
7568644.5,138661248.0,137046304.0
7559780.0,138703152.0,137022928.0
7578315.0,138676560.0,137032608.0
7565421.0,138698320.0,137045488.0
7575897.5,138695088.0,137062416.0
7571062.5,138658832.0,137018096.0
7570256.5,138642704.0,137050336.0
7570256.5,138638688.0,137065648.0
7579926.5,138631424.0,137018896.0
7568644.5,138636256.0,137014064.0
7581538.5,138659632.0,137058384.0
7566227.0,138678176.0,137021312.0
7581538.5,138667696.0,137078528.0
7569450.5,138717648.0,137039040.0
7573480.0,138699920.0,137010032.0
7573480.0,138737808.0,137103520.0
7567033.0,138757136.0,137047104.0
7580732.5,138775680.0,137085792.0
7584762.0,138807104.0,137106736.0
7579926.5,138809520.0,137117216.0
7590403.0,138797440.0,137084976.0
7580732.5,138859488.0,137140592.0
7584762.0,138853040.0,137106736.0
7587179.5,138908640.0,137102704.0
7576703.5,138912672.0,137151056.0
7592014.5,138883664.0,137151056.0
7591209.0,138899776.0,137173632.0
7571062.5,138781312.0,137130112.0
7577509.0,138718464.0,137173632.0
7574285.5,138610480.0,137131728.0
7554945.0,138541168.0,137060800.0
7554945.0,138555680.0,137081760.0
7551721.5,138468640.0,137062416.0
7557362.5,138530688.0,137049520.0
7553333.5,138430768.0,137030992.0
7547692.5,138423520.0,136994720.0
7543663.0,138490400.0,137014064.0
7552527.5,138458976.0,137038240.0
7542857.0,138432384.0,137019712.0
7538022.0,138462192.0,137000368.0
7542051.5,138516992.0,136998752.0
7546886.5,138496848.0,136996336.0
7545274.5,138496848.0,137001984.0
7545274.5,138516992.0,137055968.0
7539633.5,138528272.0,137060800.0
7546886.5,138530688.0,137065648.0
7549304.0,138400144.0,137010032.0
7551721.5,138453328.0,137019712.0
7543663.0,138492816.0,137051136.0
7543663.0,138440432.0,137024544.0
7538828.0,138506528.0,137076928.0
7541245.5,138496048.0,137042272.0
7545274.5,138495232.0,137097072.0
7537216.0,138504912.0,137064832.0
7550110.0,138537136.0,137077728.0
7538022.0,138559712.0,137091424.0
7552527.5,138524256.0,137121248.0
7559780.0,138600000.0,137092240.0
7563003.5,138601616.0,137163152.0
7558168.5,138679776.0,137132528.0
7567033.0,138663664.0,137153472.0
7562198.0,138662048.0,137132528.0
7563003.5,138712816.0,137148640.0
7563003.5,138711216.0,137153472.0
7563003.5,138733776.0,137150256.0
7558974.5,138786960.0,137180080.0
7562198.0,138707184.0,137186528.0
7558974.5,138673328.0,137180880.0
7567033.0,138566160.0,137130912.0
7538828.0,138566960.0,137159920.0
7546886.5,138435600.0,137136560.0
7533992.5,138364688.0,137072896.0
7523516.5,138276848.0,137103520.0
7528351.5,138378384.0,137114000.0
7509011.0,138352608.0,137070480.0
7525934.0,138277648.0,137049520.0
7521905.0,138284912.0,137011648.0
7519487.0,138340512.0,137076928.0
7518681.5,138327616.0,137076928.0
7514652.0,138339712.0,137044688.0
7517875.5,138321984.0,137068064.0
7512234.5,138365488.0,137064832.0
7523516.5,138344544.0,137050336.0
7517069.5,138359040.0,137114000.0
7526740.0,138356624.0,137087392.0
7524322.5,138385648.0,137139776.0
7521905.0,138375168.0,137123664.0
7530769.0,138314720.0,137082560.0
7521099.0,138355024.0,137126080.0
7516263.5,138354208.0,137058384.0
7507399.5,138388864.0,137135744.0
7514652.0,138347760.0,137080960.0
7520293.0,138366304.0,137122048.0
7514652.0,138339712.0,137145424.0
7516263.5,138461392.0,137155088.0
7519487.0,138463008.0,137192160.0
7530769.0,138469456.0,137155088.0
7520293.0,138499264.0,137189744.0
7528351.5,138544400.0,137197808.0
7535604.5,138492016.0,137143808.0
7533187.0,138513776.0,137196192.0
7525128.0,138534720.0,137176848.0
7541245.5,138540368.0,137221984.0
7538828.0,138580656.0,137206672.0
7529963.5,138595968.0,137208272.0
7544469.0,138652384.0,137256624.0
7538022.0,138602416.0,137238096.0
7539633.5,138572608.0,137242128.0
7538022.0,138530688.0,137207472.0
7512234.5,138444464.0,137255024.0
7519487.0,138413040.0,137213920.0
7523516.5,138315536.0,137225200.0
7507399.5,138238176.0,137197808.0
7517875.5,138255904.0,137142192.0
7506593.5,138245424.0,137155904.0
7509011.0,138197072.0,137124464.0
7502564.0,138226080.0,137161536.0
7494505.5,138208352.0,137142192.0
7498535.0,138263152.0,137158320.0
7488864.5,138227696.0,137151056.0
7497729.0,138207552.0,137125280.0
7498535.0,138284096.0,137161536.0
7498535.0,138222048.0,137184912.0
7494505.5,138267184.0,137141392.0
7491282.0,138284096.0,137196992.0
7492894.0,138256704.0,137178464.0
7492088.0,138282496.0,137165568.0
7493699.5,138248640.0,137209888.0
7490476.0,138270400.0,137166368.0
7478388.5,138286528.0,137226816.0
7497729.0,138251056.0,137167984.0
7480000.0,138276048.0,137192160.0
7487252.5,138286528.0,137173632.0
7493699.5,138273632.0,137184912.0
7490476.0,138296992.0,137179264.0
7495311.5,138341312.0,137231648.0
7492088.0,138380800.0,137252608.0
7499340.5,138339712.0,137212304.0
7503370.0,138390480.0,137237296.0
7499340.5,138411424.0,137214720.0
7503370.0,138412240.0,137246960.0
7506593.5,138449312.0,137223584.0
7515458.0,138391280.0,137286448.0
7507399.5,138475904.0,137269520.0
7516263.5,138544400.0,137264688.0
7512234.5,138514576.0,137292896.0
7512234.5,138569376.0,137320288.0
7504981.5,138566960.0,137310624.0
7498535.0,138595968.0,137298528.0
7498535.0,138533120.0,137352528.0
7496923.0,138414656.0,137309824.0
7480000.0,138377584.0,137300144.0
7474359.0,138320368.0,137271136.0
7473553.0,138221248.0,137238096.0
7469524.0,138239776.0,137293696.0
7479194.0,138182560.0,137208272.0
7467912.0,138177728.0,137237296.0
7468718.0,138167248.0,137211504.0
7456630.0,138161616.0,137208272.0
7455018.5,138142272.0,137237296.0
7461465.0,138110032.0,137148640.0
7457436.0,138143888.0,137178464.0
7455018.5,138164032.0,137240512.0
7447765.5,138132608.0,137251792.0
7458242.0,138151936.0,137234064.0
7441318.5,138178528.0,137194576.0
7434066.0,138143888.0,137228432.0
7434066.0,138170480.0,137180880.0
7441318.5,138187392.0,137238096.0
7429231.0,138146304.0,137275968.0
7434066.0,138164832.0,137228432.0
7446959.5,138209152.0,137301760.0
7443736.5,138201104.0,137239712.0
7453406.5,138186592.0,137197808.0
7439707.0,138217216.0,137244544.0
7434066.0,138247040.0,137284032.0
7448571.5,138221248.0,137232448.0
7439707.0,138267184.0,137235680.0
7446154.0,138273632.0,137312240.0
7434066.0,138266368.0,137255824.0
7448571.5,138331648.0,137296112.0
7442930.5,138350992.0,137300960.0
7453406.5,138346160.0,137313840.0
7438095.0,138415456.0,137296112.0
7442124.5,138426736.0,137380736.0
7454212.5,138450112.0,137321104.0
7436483.5,138483952.0,137388784.0
7456630.0,138455744.0,137323520.0
7463077.0,138520224.0,137346080.0
7461465.0,138519408.0,137349312.0
7461465.0,138516192.0,137402496.0
7464688.5,138532304.0,137392816.0
7463883.0,138564544.0,137391216.0
7449377.5,138577440.0,137426672.0
7453406.5,138477504.0,137364608.0
7445348.0,138450912.0,137369456.0
7455018.5,138359040.0,137412960.0
7450183.0,138308272.0,137395232.0
7443736.5,138223664.0,137350912.0
7450989.0,138234944.0,137368640.0
7448571.5,138144688.0,137309008.0
7454212.5,138211568.0,137317872.0
7448571.5,138168864.0,137255824.0
7452600.5,138138240.0,137233264.0
7445348.0,138120512.0,137283216.0
7448571.5,138135824.0,137247760.0
7434872.0,138106816.0,137233264.0
7438901.0,138115680.0,137289664.0
7438901.0,138198688.0,137234064.0
7441318.5,138147104.0,137225200.0
7453406.5,138197072.0,137250992.0
7447765.5,138183376.0,137260656.0
7440513.0,138202704.0,137295312.0
7446959.5,138214800.0,137296928.0
7438095.0,138194656.0,137321104.0
7457436.0,138191424.0,137261472.0
7451795.0,138202704.0,137296112.0
7458242.0,138204320.0,137343664.0
7456630.0,138277648.0,137271136.0
7441318.5,138292960.0,137298528.0
7458242.0,138245424.0,137288064.0
7458242.0,138228496.0,137344464.0
7437289.5,138303440.0,137347696.0
7438095.0,138339712.0,137326736.0
7450989.0,138377584.0,137319488.0
7452600.5,138418688.0,137347696.0
7449377.5,138425136.0,137369456.0
7451795.0,138402560.0,137313040.0
7438901.0,138446080.0,137399264.0
7448571.5,138496848.0,137397648.0
7448571.5,138512160.0,137425856.0
7465494.5,138482352.0,137459712.0
7446959.5,138537136.0,137408944.0
7457436.0,138552448.0,137415392.0
7442930.5,138589520.0,137408128.0
7464688.5,138597584.0,137437952.0
7468718.0,138608864.0,137441168.0
7466300.5,138658832.0,137461312.0
7450183.0,138671728.0,137439568.0
7459853.5,138668496.0,137426672.0
7455018.5,138699920.0,137454864.0
7457436.0,138717648.0,137462928.0
7440513.0,138713632.0,137463744.0
7444542.0,138629008.0,137450032.0
7431648.5,138559712.0,137444400.0
7434066.0,138475088.0,137432304.0
7442124.5,138417072.0,137403296.0
7438901.0,138394512.0,137369456.0
7441318.5,138358240.0,137396048.0
7439707.0,138318752.0,137387984.0
7436483.5,138330848.0,137358976.0
7419560.5,138416256.0,137375088.0
7432454.0,138412240.0,137347696.0
7433260.0,138380800.0,137369456.0
7437289.5,138383216.0,137432304.0
7429231.0,138417072.0,137372672.0
7437289.5,138427552.0,137349312.0
7428425.0,138434800.0,137379920.0
7430842.5,138499264.0,137400880.0
7429231.0,138460592.0,137359776.0
7427619.0,138492816.0,137404096.0
7440513.0,138445280.0,137423440.0
7426813.0,138483152.0,137425856.0
7438901.0,138493632.0,137399264.0
7438095.0,138429152.0,137373472.0
7432454.0,138482352.0,137383952.0
7438901.0,138536336.0,137364608.0
7437289.5,138548432.0,137426672.0
7431648.5,138533920.0,137396848.0
7432454.0,138597584.0,137420224.0
7435677.5,138592752.0,137391216.0
7443736.5,138571792.0,137425056.0
7443736.5,138621760.0,137478240.0
7442930.5,138672528.0,137504832.0
7446959.5,138651568.0,137496784.0
7451795.0,138711216.0,137496784.0
7449377.5,138722496.0,137430688.0
7460659.5,138724096.0,137459712.0
7457436.0,138773264.0,137508064.0
7446154.0,138797440.0,137495968.0
7452600.5,138827248.0,137483888.0
7450183.0,138820800.0,137440368.0
7448571.5,138836928.0,137472608.0
7454212.5,138821616.0,137533840.0
7459853.5,138878832.0,137528208.0
7461465.0,138931216.0,137549968.0
7467912.0,138928784.0,137557216.0
7476776.5,138971504.0,137541104.0
7466300.5,139004544.0,137568496.0
7475165.0,138995680.0,137569312.0
7478388.5,138957808.0,137567696.0
7480806.0,138971504.0,137545136.0
7479194.0,138907040.0,137573328.0
7459047.5,138869152.0,137580592.0
7465494.5,138783744.0,137537072.0
7463077.0,138756336.0,137537072.0
7465494.5,138742640.0,137497584.0
7461465.0,138652384.0,137510480.0
7463077.0,138718464.0,137508064.0
7441318.5,138716848.0,137574944.0
7446959.5,138699920.0,137547552.0
7450183.0,138723296.0,137473408.0
7451795.0,138785344.0,137530624.0
7462271.0,138751504.0,137503216.0
7455824.0,138771648.0,137546736.0
7442930.5,138794208.0,137514512.0
7445348.0,138879632.0,137571728.0
7453406.5,138832080.0,137528208.0
7456630.0,138830480.0,137507248.0
7460659.5,138855456.0,137562864.0
7452600.5,138801472.0,137490336.0
7456630.0,138810336.0,137485488.0
7455018.5,138867552.0,137570912.0
7463077.0,138870768.0,137576560.0
7455824.0,138903008.0,137534656.0
7462271.0,138887696.0,137533840.0
7461465.0,138883664.0,137529824.0
7465494.5,138838528.0,137582192.0
7454212.5,138923152.0,137564464.0
7453406.5,138947328.0,137567696.0
7455824.0,138957808.0,137564464.0
7470329.5,139005344.0,137583008.0
7473553.0,138998896.0,137557216.0
7469524.0,139036784.0,137627328.0
7475970.5,139038384.0,137594288.0
7467106.0,139055312.0,137576560.0
7469524.0,139095600.0,137626528.0
7467912.0,139095600.0,137608784.0
7467106.0,139150400.0,137594288.0
7468718.0,139128640.0,137506448.0
7464688.5,139165712.0,137659568.0
7471135.5,139173776.0,137649088.0
7460659.5,139209232.0,137604768.0
7478388.5,139199568.0,137627328.0
7489670.5,139220512.0,137675680.0
7496923.0,139243072.0,137677296.0
7491282.0,139294656.0,137667616.0
7511428.5,139293840.0,137635392.0
7513040.5,139334944.0,137714352.0
7489670.5,139347040.0,137720800.0
7485641.0,139376848.0,137694208.0
7488864.5,139346224.0,137720800.0
7486447.0,139387328.0,137770768.0
7483223.5,139239856.0,137679712.0
7480806.0,139148784.0,137636192.0
7477582.5,139110112.0,137627328.0
7471135.5,139077872.0,137539488.0
7467912.0,139115744.0,137639408.0
7463077.0,139106880.0,137621680.0
7455824.0,139057728.0,137643440.0
7460659.5,139083520.0,137615232.0
7471941.5,139121392.0,137572528.0
7477582.5,139139120.0,137670848.0
7478388.5,139136704.0,137625712.0
7493699.5,139193920.0,137613632.0
7496117.0,139207616.0,137551568.0
7497729.0,139185856.0,137607984.0
7498535.0,139222928.0,137669232.0
7496923.0,139235024.0,137597504.0
7484835.0,139260000.0,137662784.0
7483223.5,139226160.0,137667616.0
7475165.0,139185856.0,137612016.0
7485641.0,139164096.0,137646672.0
7480806.0,139187472.0,137620080.0
7474359.0,139242272.0,137628128.0
7483223.5,139211648.0,137612016.0
7465494.5,139243888.0,137602352.0
7462271.0,139246304.0,137606368.0
7459853.5,139268864.0,137605568.0
7462271.0,139282560.0,137617648.0
7450989.0,139347040.0,137600736.0
7463077.0,139285792.0,137645856.0
7465494.5,139351056.0,137652304.0
7466300.5,139367984.0,137657952.0
7475165.0,139368784.0,137659568.0
7457436.0,139409888.0,137637808.0
7464688.5,139446160.0,137598320.0
7456630.0,139409088.0,137622496.0
7473553.0,139455024.0,137637808.0
7472747.5,139443744.0,137676480.0
7482417.5,139517072.0,137678096.0
7500146.5,139529152.0,137685344.0
7526740.0,139501760.0,137652304.0
7542857.0,139521104.0,137695024.0
7544469.0,139561392.0,137666816.0
7536410.5,139569456.0,137736928.0
7541245.5,139629088.0,137774000.0
7539633.5,139615392.0,137785280.0
7521099.0,139708064.0,137691792.0
7504176.0,139662128.0,137758688.0
7508205.0,139614576.0,137745792.0
7471135.5,139580736.0,137736112.0
7468718.0,139527552.0,137703888.0
7450183.0,139436480.0,137702272.0
7435677.5,139382496.0,137704688.0
7442930.5,139368784.0,137643440.0
7446154.0,139388944.0,137634576.0
7446154.0,139382496.0,137643440.0
7483223.5,139294656.0,137594288.0
7507399.5,139341392.0,137650688.0
7523516.5,139368784.0,137605568.0
7539633.5,139431648.0,137639408.0
7559780.0,139380880.0,137615232.0
7543663.0,139465488.0,137630544.0
7554139.0,139508208.0,137682928.0
7544469.0,139462272.0,137641824.0
7526740.0,139493696.0,137686960.0
7539633.5,139441312.0,137667616.0
7503370.0,139471936.0,137681312.0
7488864.5,139505792.0,137688576.0
7488058.5,139520288.0,137710336.0
7499340.5,139478384.0,137570112.0
7513040.5,139545280.0,137680512.0
7519487.0,139476784.0,137703072.0
7529157.5,139542048.0,137672448.0
7532381.0,139544464.0,137695824.0
7529963.5,139484032.0,137606368.0
7525934.0,139583952.0,137632960.0
7516263.5,139586368.0,137690992.0
7500146.5,139579920.0,137689376.0
7511428.5,139621824.0,137690992.0
7488058.5,139616192.0,137661168.0
7511428.5,139649232.0,137705488.0
7509011.0,139615392.0,137700656.0
7516263.5,139606528.0,137675680.0
7511428.5,139667760.0,137651504.0
7506593.5,139726592.0,137718384.0
7521099.0,139738688.0,137704688.0
7525128.0,139714512.0,137716784.0
7533992.5,139685488.0,137715168.0
7542857.0,139726592.0,137682128.0
7533992.5,139767696.0,137685344.0
7529963.5,139788640.0,137680512.0
7528351.5,139807984.0,137707920.0
7517069.5,139852304.0,137720800.0
7517875.5,139853920.0,137742560.0
7511428.5,139804768.0,137698240.0
7518681.5,139845856.0,137736928.0
7514652.0,139758016.0,137653920.0
7525934.0,139699200.0,137693408.0
7532381.0,139669376.0,137699856.0
7535604.5,139599264.0,137662784.0
7574285.5,139567840.0,137641024.0
7558974.5,139517072.0,137617648.0
7546080.5,139494512.0,137628128.0
7532381.0,139515456.0,137611216.0
7509817.0,139580736.0,137702272.0
7484835.0,139535600.0,137630544.0
7471135.5,139566224.0,137579776.0
7463077.0,139547696.0,137586224.0
7463077.0,139592016.0,137589456.0
7477582.5,139605712.0,137555600.0
7483223.5,139610544.0,137494352.0
7519487.0,139599264.0,137573328.0
7561392.0,139583952.0,137578976.0
7583150.0,139594432.0,137596704.0
7625055.0,139592816.0,137591056.0
7652454.0,139573472.0,137553184.0
7662930.5,139595232.0,137545136.0
7657289.5,139533184.0,137583808.0
7651648.5,139645200.0,137621680.0
7628278.5,139612960.0,137617648.0
7598461.5,139613776.0,137589456.0
7565421.0,139619408.0,137582192.0
7556557.0,139643584.0,137545936.0
7552527.5,139602496.0,137629744.0
7549304.0,139625856.0,137506448.0
7566227.0,139648432.0,137516112.0
7593626.5,139656480.0,137534656.0
7608937.5,139690336.0,137548352.0
7641172.0,139708864.0,137596704.0
7661318.5,139687920.0,137562048.0
7669377.5,139744320.0,137591056.0
7663736.5,139790256.0,137651504.0
7652454.0,139779776.0,137596704.0
7643589.5,139799920.0,137600736.0
7626666.5,139796704.0,137568496.0
7618608.0,139837808.0,137575744.0
7606520.0,139799920.0,137591056.0
7593626.5,139869232.0,137602352.0
7609743.5,139841824.0,137566880.0
7613773.0,139823296.0,137583008.0
7625861.0,139944176.0,137537072.0
7664542.0,139866000.0,137634576.0
7661318.5,139785424.0,137584608.0
7670183.0,139729824.0,137569312.0
7670989.0,139634720.0,137537072.0
7655677.5,139594432.0,137570912.0
7637948.5,139534000.0,137562048.0
7619414.0,139548496.0,137525792.0
7620220.0,139525136.0,137492752.0
7598461.5,139543664.0,137467760.0
7606520.0,139500144.0,137450848.0
7612967.0,139517872.0,137489520.0
7619414.0,139525936.0,137471792.0
7639560.5,139635536.0,137492752.0
7628278.5,139603296.0,137484688.0
7644395.5,139670992.0,137509664.0
7657289.5,139648432.0,137591872.0
7656483.5,139633120.0,137511280.0
7648425.0,139557360.0,137502416.0
7640366.5,139678240.0,137482272.0
7646007.5,139625856.0,137519344.0
7636337.0,139613776.0,137508064.0
7647619.0,139625856.0,137453264.0
7654066.0,139580736.0,137494352.0
7652454.0,139639568.0,137514512.0
7658095.0,139638752.0,137501616.0
7657289.5,139629888.0,137502416.0
7645201.5,139678240.0,137458896.0
7668571.5,139683072.0,137485488.0
7662930.5,139684688.0,137504832.0
7669377.5,139704032.0,137473408.0
7659707.0,139774144.0,137531424.0
7675824.0,139697584.0,137443584.0
7675824.0,139659712.0,137466160.0
7662930.5,139773328.0,137500000.0
7675824.0,139741104.0,137500800.0
7675824.0,139791872.0,137515312.0
7695165.0,139824912.0,137465344.0
7698388.5,139845056.0,137524976.0
7692747.5,139826528.0,137529824.0
7695165.0,139865200.0,137529008.0
7697582.5,139859568.0,137536256.0
7692747.5,139888576.0,137487920.0
7694359.0,139805568.0,137458896.0
7693553.0,139770112.0,137490336.0
7683883.0,139758832.0,137479856.0
7687912.0,139659712.0,137498384.0
7675018.5,139600880.0,137474208.0
7674212.5,139514656.0,137385568.0
7669377.5,139525936.0,137408944.0
7664542.0,139485648.0,137442784.0
7675824.0,139481616.0,137408128.0
7666154.0,139507392.0,137404912.0
7665348.0,139514656.0,137352528.0
7671795.0,139492896.0,137321904.0
7654066.0,139500960.0,137366224.0
7662124.5,139574288.0,137394432.0
7653260.0,139538016.0,137381536.0
7672600.5,139571056.0,137367040.0
7661318.5,139577504.0,137383152.0
7688718.0,139538016.0,137344464.0
7662124.5,139554944.0,137358176.0
7676630.0,139554944.0,137376704.0
7666154.0,139548496.0,137321104.0
7675018.5,139578320.0,137349312.0
7684688.5,139541248.0,137363808.0
7685494.5,139486448.0,137370256.0
7677436.0,139579920.0,137309008.0
7660513.0,139548496.0,137375088.0
7675824.0,139535600.0,137313840.0
7658901.0,139575088.0,137322704.0
7662930.5,139569456.0,137340432.0
7678242.0,139581536.0,137334800.0
7688718.0,139611360.0,137313040.0
7699194.0,139610544.0,137379120.0
7678242.0,139629888.0,137429888.0
7697582.5,139640368.0,137346880.0
7698388.5,139690336.0,137370256.0
7687106.0,139655680.0,137343664.0
7709670.5,139681472.0,137387984.0
7695165.0,139661312.0,137355744.0
7704835.0,139716928.0,137375088.0
7703223.5,139697584.0,137329968.0
7695165.0,139765280.0,137399264.0
7707252.5,139736256.0,137380736.0
7702417.5,139680656.0,137341248.0
7693553.0,139594432.0,137375088.0
7691941.5,139497728.0,137263072.0
7692747.5,139490480.0,137289664.0
7683077.0,139409888.0,137296112.0
7682271.0,139363952.0,137296112.0
7666154.0,139335744.0,137220368.0
7668571.5,139330912.0,137262272.0
7653260.0,139292240.0,137216336.0
7670183.0,139311568.0,137163152.0
7664542.0,139289824.0,137167184.0
7655677.5,139311568.0,137170400.0
7656483.5,139346224.0,137234064.0
7658095.0,139341392.0,137145424.0
7660513.0,139280960.0,137172816.0
7665348.0,139345424.0,137153472.0
7660513.0,139318832.0,137220368.0
7659707.0,139365568.0,137158320.0
7651648.5,139327696.0,137159120.0
7655677.5,139314800.0,137153472.0
7662930.5,139264032.0,137074512.0
7658095.0,139259200.0,137043888.0
7662124.5,139243072.0,137138976.0
7668571.5,139291424.0,137130112.0
7660513.0,139267248.0,137117216.0
7670183.0,139305136.0,137115600.0
7679853.5,139330112.0,137103520.0
7682271.0,139338976.0,137126880.0
7672600.5,139362352.0,137146224.0
7687106.0,139344608.0,137115600.0
7674212.5,139359920.0,137165568.0
7666959.5,139388128.0,137127696.0
7668571.5,139353472.0,137132528.0
7666154.0,139360736.0,137048720.0
7687106.0,139389744.0,137115600.0
7680659.5,139410688.0,137120432.0
7691135.5,139433264.0,137081760.0
7700000.0,139448576.0,137159120.0
